eda,bvp,temp,x,y,z,emotion
0,-0.03,31.63,-13,-18,62,0
0.04,5.06,31.63,-15,-18,62,0
0.08,17.91,31.63,-14,-17,62,0
0.08,79.34,31.63,-16,-17,60,0
0.08,228.25,31.63,3,-12,63,0
0.08,-486.47,31.63,9,-3,72,0
0.08,-5.02,31.63,13,-2,69,0
0.09,160.09,31.63,4,-8,66,0
0.09,63.4,31.61,1,-9,65,0
0.09,35.3,31.61,3,-9,65,0
0.08,-22.52,31.61,1,-10,64,0
0.09,10.78,31.61,0,-10,64,0
0.08,79.85,31.59,-1,-10,64,0
0.09,157.88,31.59,-1,-10,64,0
0.09,61.42,31.59,0,-10,64,0
0.08,3.83,31.59,-1,-10,65,0
0.09,-3.45,31.57,4,-11,63,0
0.08,-7.97,31.57,0,-11,64,0
0.09,-12.42,31.57,-1,-11,64,0
0.09,-27.72,31.57,-1,-11,64,0
0.09,-116.2,31.57,-2,-11,64,0
0.09,-391.69,31.57,-3,-11,63,0
0.08,-67.77,31.57,-2,-11,64,0
0.08,32.32,31.57,-1,-13,63,0
0.08,55.27,31.55,-2,-11,64,0
0.09,16.29,31.55,-2,-11,64,0
0.09,-10.43,31.55,-1,-11,64,0
0.09,19.7,31.55,-2,-11,64,0
0.08,-35.76,31.51,-3,-11,64,0
0.09,60.46,31.51,-3,-12,63,0
0.08,38.33,31.51,-3,-12,64,0
0.08,4.61,31.51,-3,-12,64,0
0.08,22.61,31.49,-3,-12,64,0
0.08,-10.86,31.49,-3,-12,63,0
0.08,26.54,31.49,-3,-12,64,0
0.08,20.89,31.49,-2,-12,64,0
0.08,-18.3,31.51,-3,-12,64,0
0.09,14.75,31.51,-2,-12,63,0
0.08,-15.46,31.51,-2,-11,64,0
0.08,-21.16,31.51,-3,-12,64,0
0.08,22.43,31.49,-3,-12,63,0
0.08,-22.65,31.49,-3,-12,64,0
0.09,26.16,31.49,-3,-12,64,0
0.08,32.36,31.49,-2,-12,64,0
0.08,-48.79,31.47,-2,-12,64,0
0.08,36.69,31.47,-3,-12,63,0
0.08,-9.83,31.47,-3,-12,64,0
0.09,9.23,31.47,-3,-12,64,0
0.08,10.65,31.47,-3,-12,65,0
0.08,-48.85,31.47,-2,-12,65,0
0.08,39.32,31.47,-3,-12,64,0
0.08,16.22,31.47,-3,-12,64,0
0.08,-4.09,31.45,-4,-12,64,0
0.08,-42.65,31.45,-3,-12,64,0
0.08,-1.65,31.45,-2,-12,63,0
0.08,32.35,31.45,-2,-12,64,0
0.08,20.3,31.43,2,-12,64,0
0.08,-8.6,31.43,5,-13,64,0
0.08,48.98,31.43,5,-13,64,0
0.08,31.11,31.43,5,-14,63,0
0.08,-13.8,31.41,2,-13,63,0
0.08,105.04,31.41,3,-13,63,0
0.08,-22.06,31.41,2,-13,63,0
0.08,-47.62,31.41,1,-13,63,0
0.08,-49.14,31.39,0,-13,63,0
0.08,-11.81,31.39,-1,-13,63,0
0.08,23.8,31.39,0,-12,64,0
0.08,-26.33,31.39,-1,-13,64,0
0.09,-63.92,31.39,0,-13,64,0
0.09,50.41,31.39,0,-13,64,0
0.08,21.63,31.39,-1,-13,63,0
0.08,-4.56,31.39,0,-13,64,0
0.09,23.34,31.35,0,-13,63,0
0.09,-13.63,31.35,0,-13,63,0
0.08,24.6,31.35,0,-13,64,0
0.08,7.1,31.35,0,-12,63,0
0.09,-48.15,31.33,-1,-12,64,0
0.08,36.18,31.33,-1,-12,64,0
0.08,-7.49,31.33,-1,-12,63,0
0.08,-27.26,31.33,-1,-12,63,0
0.08,21.53,31.35,-1,-12,64,0
0.09,14.7,31.35,-1,-12,63,0
0.09,8.7,31.35,-1,-12,64,0
0.08,0.59,31.35,0,-12,64,0
0.09,-19.43,31.33,0,-13,64,0
0.08,35.01,31.33,0,-12,64,0
0.08,16.32,31.33,0,-12,64,0
0.08,-50.18,31.33,0,-12,64,0
0.08,29.95,31.33,0,-13,64,0
0.09,-9.84,31.33,0,-13,63,0
0.09,-7.04,31.33,-1,-13,63,0
0.09,21.86,31.33,0,-12,63,0
0.09,-28.68,31.31,-1,-13,63,0
0.09,21.67,31.31,0,-12,64,0
0.09,5.58,31.31,0,-13,64,0
0.09,-37.88,31.31,0,-12,64,0
0.09,53.72,31.29,0,-12,64,0
0.09,19.58,31.29,4,-11,65,0
0.09,-51.61,31.29,6,-12,65,0
0.09,17.82,31.29,-1,-15,67,0
0.08,-6.81,31.31,-6,-15,63,0
0.09,27.99,31.31,-8,-17,66,0
0.09,-133.47,31.31,-11,-16,60,0
0.09,-264.8,31.31,1,-17,58,0
0.09,167.77,31.27,-4,-19,64,0
0.09,71.07,31.27,-4,-19,62,0
0.09,-124.77,31.27,-4,-19,64,0
0.09,-74.28,31.27,-5,-19,63,0
0.09,261.12,31.27,-5,-21,62,0
0.09,113.23,31.27,-6,-20,62,0
0.09,18.93,31.27,-5,-21,60,0
0.09,-1.77,31.27,-6,-21,62,0
0.09,-12.17,31.23,-5,-21,62,0
0.09,-4.88,31.23,-5,-22,61,0
0.09,-14.09,31.23,-6,-22,61,0
0.09,0.53,31.23,-9,-20,62,0
0.09,2.03,31.25,-11,-21,61,0
0.09,-12.75,31.25,-11,-21,60,0
0.09,-5.83,31.25,-12,-22,61,0
0.09,-1.61,31.25,-12,-21,61,0
0.09,-10.73,31.25,-10,-22,61,0
0.09,4.67,31.25,-11,-22,61,0
0.09,-7.86,31.25,-10,-22,61,0
0.09,-6.18,31.25,-11,-21,61,0
0.09,1.93,31.25,-10,-22,60,0
0.09,-5.32,31.25,-11,-21,61,0
0.09,7.44,31.25,-11,-22,61,0
0.09,-4.87,31.25,-11,-21,61,0
0.09,-13.55,31.25,-10,-22,60,0
0.09,2.1,31.25,-11,-22,61,0
0.09,-2.62,31.25,-11,-22,60,0
0.09,-4.47,31.25,-11,-22,60,0
0.09,2.77,31.25,-11,-22,61,0
0.09,-3.69,31.25,-11,-21,60,0
0.09,0.22,31.25,-11,-21,61,0
0.09,0.63,31.25,-10,-21,61,0
0.09,-10.15,31.25,-11,-22,60,0
0.09,2.31,31.25,-11,-22,60,0
0.09,-1.44,31.25,-11,-22,61,0
0.09,-5.7,31.25,-11,-22,61,0
0.09,1.79,31.21,-11,-22,60,0
0.09,-4.16,31.21,-11,-22,60,0
0.09,4.28,31.21,-12,-22,61,0
0.09,0.02,31.21,-11,-22,61,0
0.09,-4.76,31.23,-11,-22,60,0
0.09,5.86,31.23,-12,-22,61,0
0.09,-2.02,31.23,-12,-22,60,0
0.09,-8.92,31.23,-11,-22,60,0
0.09,3.61,31.21,-11,-22,60,0
0.09,-0.75,31.21,-10,-21,62,0
0.09,-7.91,31.21,-11,-22,62,0
0.09,4.02,31.21,-19,-20,69,0
0.09,0.19,31.23,-18,-23,53,0
0.09,-4.9,31.23,-28,-11,71,0
0.09,-42.58,31.23,-35,-8,60,0
0.09,-64.17,31.23,-35,-5,58,0
0.09,-73.97,31.23,-31,-6,56,0
0.09,115.08,31.23,-31,-5,58,0
0.09,52.14,31.23,-29,-6,58,0
0.09,36.35,31.23,-30,-6,59,0
0.09,57.83,31.23,-28,-5,59,0
0.09,-0.96,31.23,-31,-5,59,0
0.09,-4.99,31.23,-29,-5,58,0
0.09,-42.46,31.23,-29,-6,58,0
0.09,10.72,31.25,-22,-7,59,0
0.09,30.34,31.25,-23,-5,62,0
0.09,0.32,31.25,-27,-4,60,0
0.09,27.52,31.25,-26,-6,59,0
0.09,19.02,31.25,-26,-6,60,0
0.09,-13.66,31.25,-26,-5,59,0
0.09,-25.62,31.25,-26,-5,60,0
0.09,-18.98,31.25,-25,-6,60,0
0.09,0.11,31.25,-25,-5,61,0
0.09,17.02,31.25,-26,-5,60,0
0.09,-16.09,31.25,-26,-6,60,0
0.09,12.6,31.25,-26,-5,60,0
0.09,16.5,31.25,-26,-5,60,0
0.09,-31.06,31.25,-26,-5,60,0
0.09,8.13,31.25,-28,-4,59,0
0.09,3.71,31.25,-27,-6,60,0
0.09,-12.8,31.27,-26,-6,60,0
0.09,-7.68,31.27,-29,-6,57,0
0.09,-3.07,31.27,-24,-6,59,0
0.09,41.68,31.27,-28,-6,58,0
0.09,-9.97,31.25,-27,-7,59,0
0.09,-2.61,31.25,-28,-6,59,0
0.09,7.97,31.25,-29,-5,60,0
0.09,-60.25,31.25,-29,-6,60,0
0.09,-1.97,31.27,-26,-6,60,0
0.09,10.72,31.27,-26,-5,60,0
0.09,26.46,31.27,-27,-4,60,0
0.09,39.12,31.27,-24,-4,60,0
0.09,-109.36,31.27,-18,-4,61,0
0.09,7.67,31.27,-30,-4,60,0
0.09,39.07,31.27,-28,-3,60,0
0.09,38.97,31.27,-21,-5,58,0
0.09,-4.95,31.27,-21,-5,60,0
0.09,-109.84,31.27,-25,-5,60,0
0.09,-2.53,31.27,-27,-5,60,0
0.1,33.56,31.27,-26,-6,60,0
0.09,-30.47,31.25,-29,-5,59,0
0.09,-17.71,31.25,-29,-6,59,0
0.1,26.18,31.25,-28,-6,59,0
0.09,8.63,31.25,-27,-6,58,0
0.09,-24.53,31.25,-30,-5,58,0
0.1,25.22,31.25,-26,-6,60,0
0.09,8.23,31.25,-23,-8,60,0
0.1,-6.25,31.25,-33,-4,60,0
0.09,21.02,31.25,-30,-7,57,0
0.09,24.09,31.25,-31,-6,59,0
0.1,19.07,31.25,-26,-6,59,0
0.09,-49.15,31.25,-24,-5,62,0
0.1,19.84,31.25,-23,-7,60,0
0.1,33.18,31.25,-26,-3,61,0
0.09,49.77,31.25,-31,-5,61,0
0.1,-3.09,31.25,-31,-6,59,0
0.09,-2.23,31.25,-37,-7,57,0
0.1,-30.34,31.25,-40,-8,53,0
0.09,-7.87,31.25,-47,-9,49,0
0.09,24.72,31.25,-49,-10,47,0
0.1,-0.9,31.23,-50,-12,44,0
0.09,22.08,31.23,-50,-13,41,0
0.1,-8.42,31.23,-50,-12,40,0
0.1,-40.05,31.23,-55,-12,38,0
0.1,-32.56,31.23,-53,-12,39,0
0.1,53.33,31.23,-53,-11,38,0
0.09,14.22,31.23,-54,-11,38,0
0.1,-14.97,31.23,-53,-11,39,0
0.1,-23.58,31.23,-53,-11,40,0
0.1,24.11,31.23,-52,-11,39,0
0.1,27.64,31.23,-52,-11,40,0
0.1,-20.29,31.23,-53,-11,40,0
0.1,9.36,31.23,-52,-11,40,0
0.1,2.72,31.23,-52,-11,40,0
0.1,2.15,31.23,-53,-11,39,0
0.1,10.63,31.23,-53,-11,40,0
0.1,-4.98,31.23,-52,-11,40,0
0.1,16.1,31.23,-53,-11,39,0
0.1,11.91,31.23,-53,-11,39,0
0.1,-20.9,31.23,-53,-11,38,0
0,-0.03,27.11,22,43,41,1
0.2,5.06,27.11,23,43,40,1
0.3,17.91,27.11,22,43,40,1
0.3,79.34,27.11,22,43,41,1
0.3,228.25,27.11,23,44,41,1
0.3,-486.5,27.11,22,43,41,1
0.3,-5.9,27.11,22,43,41,1
0.3,156.15,27.11,22,43,42,1
0.3,46.78,27.11,21,43,40,1
0.3,4.05,27.11,22,43,42,1
0.3,0.18,27.11,20,42,42,1
0.3,0.9,27.11,22,43,41,1
0.3,4,27.09,22,43,41,1
0.3,15.41,27.09,22,43,41,1
0.3,10.25,27.09,22,43,41,1
0.3,-14.03,27.09,21,43,41,1
0.3,13.49,27.09,22,43,41,1
0.3,50.54,27.09,22,43,42,1
0.3,-13.1,27.09,22,43,41,1
0.3,-100.26,27.09,22,43,41,1
0.3,19.23,27.09,21,43,41,1
0.3,8.59,27.09,22,43,42,1
0.3,26.01,27.09,21,43,42,1
0.3,16.23,27.09,22,43,42,1
0.3,-14.43,27.07,22,43,41,1
0.3,11.58,27.07,24,44,39,1
0.3,4.49,27.07,23,45,39,1
0.3,-13.62,27.07,24,44,41,1
0.3,9.02,27.07,21,43,40,1
0.3,5.57,27.07,22,43,40,1
0.3,-12.34,27.07,22,43,40,1
0.3,16.31,27.07,20,43,40,1
0.3,9.4,27.05,23,43,40,1
0.3,-30.58,27.05,24,43,40,1
0.3,9.02,27.05,23,44,40,1
0.3,18.39,27.05,23,43,41,1
0.3,-21.19,27.05,22,43,39,1
0.3,-7.99,27.05,22,43,40,1
0.3,3.07,27.05,23,44,39,1
0.31,13,27.05,24,44,40,1
0.3,15.48,27.03,22,43,40,1
0.3,0.56,27.03,21,43,41,1
0.3,-16.66,27.03,22,44,39,1
0.3,3.63,27.03,22,43,41,1
0.3,-8.21,27.03,22,43,40,1
0.3,-16.19,27.03,22,43,40,1
0.3,11.16,27.03,23,44,39,1
0.3,-4,27.03,21,43,41,1
0.3,-11.19,27.05,23,44,40,1
0.3,22.66,27.05,23,44,40,1
0.3,8.69,27.05,22,44,40,1
0.3,-9.78,27.05,22,43,39,1
0.3,7.22,27.03,22,44,40,1
0.3,0.06,27.03,23,43,38,1
0.3,-13.27,27.03,23,44,37,1
0.3,-9.29,27.03,23,45,40,1
0.3,-20.37,27.05,22,46,39,1
0.3,-13.18,27.05,23,44,39,1
0.3,28.7,27.05,31,46,33,1
0.3,-6.15,27.05,28,44,38,1
0.3,-33.87,27.03,25,43,39,1
0.3,-25.85,27.03,24,45,39,1
0.3,30.62,27.03,22,46,33,1
0.3,54.92,27.03,21,48,32,1
0.3,143.79,27.03,29,47,32,1
0.31,-45.32,27.03,33,47,32,1
0.31,-137.26,27.03,33,45,30,1
0.32,60.85,27.03,35,44,30,1
0.32,114.7,27.01,37,45,28,1
0.32,178.79,27.01,37,45,29,1
0.32,-112.13,27.01,35,44,28,1
0.31,4.42,27.01,31,43,27,1
0.32,-74.22,27.03,35,44,32,1
0.32,-35.1,27.03,32,47,27,1
0.32,-41.23,27.03,36,47,29,1
0.32,20.6,27.03,32,46,33,1
0.31,78.94,27.03,31,46,32,1
0.32,-45,27.03,30,45,34,1
0.31,-10.08,27.03,33,45,31,1
0.31,16.23,27.03,31,45,33,1
0.32,-83.32,27.05,33,44,35,1
0.32,-161.96,27.05,31,45,29,1
0.32,-77.68,27.05,38,44,30,1
0.31,-18.1,27.05,34,44,30,1
0.32,-43.48,27.05,34,45,31,1
0.32,-84.27,27.05,34,44,31,1
0.32,113.31,27.05,34,44,30,1
0.31,306.37,27.05,32,44,31,1
0.32,101.16,27.05,34,44,33,1
0.31,190.07,27.05,31,44,29,1
0.32,53.17,27.05,34,45,32,1
0.32,18.08,27.05,35,45,29,1
0.32,-144.02,27.07,35,45,29,1
0.32,-53.84,27.07,36,45,30,1
0.32,-152.55,27.07,35,45,30,1
0.32,48.36,27.07,35,45,29,1
0.32,-85.3,27.09,35,45,29,1
0.32,100.16,27.09,34,45,29,1
0.32,81.34,27.09,36,44,30,1
0.32,27.62,27.09,35,45,29,1
0.32,-93.54,27.07,36,45,29,1
0.32,27.29,27.07,34,45,29,1
0.32,17.53,27.07,35,44,29,1
0.32,-0.59,27.07,35,45,30,1
0.32,23.23,27.09,36,44,30,1
0.32,44.97,27.09,35,45,29,1
0.32,29.77,27.09,35,45,29,1
0.32,-68.8,27.09,35,45,30,1
0.32,-9.34,27.09,34,45,30,1
0.32,-12.27,27.09,35,45,30,1
0.32,-22.39,27.09,34,45,29,1
0.32,-2.85,27.09,34,45,29,1
0.32,11.48,27.11,35,44,30,1
0.32,3.69,27.11,35,44,29,1
0.32,19.02,27.11,35,45,29,1
0.32,-23.2,27.11,35,45,29,1
0.32,7.05,27.15,35,45,29,1
0.32,46.12,27.15,35,45,30,1
0.32,-9.58,27.15,35,45,30,1
0.32,-17.57,27.15,35,45,29,1
0.32,-14.43,27.13,35,45,30,1
0.32,-16.83,27.13,36,45,29,1
0.32,34.72,27.13,35,45,30,1
0.32,-9.51,27.13,35,45,30,1
0.32,-16.78,27.13,35,45,30,1
0.32,-16.04,27.13,35,44,29,1
0.32,22.19,27.13,38,45,30,1
0.32,26.88,27.13,36,45,29,1
0.32,15.35,27.11,39,45,27,1
0.32,29.02,27.11,40,44,22,1
0.32,-50.08,27.11,41,45,16,1
0.32,-12.23,27.11,43,43,19,1
0.32,93.29,27.13,44,46,7,1
0.31,5.96,27.13,44,46,11,1
0.31,-138.66,27.13,42,47,7,1
0.32,-107.23,27.13,45,46,7,1
0.32,-17.61,27.13,44,47,6,1
0.32,348.81,27.13,44,47,6,1
0.32,137.83,27.13,46,46,6,1
0.32,-28.35,27.13,43,47,5,1
0.31,-61.81,27.15,44,47,11,1
0.31,7.89,27.15,42,47,8,1
0.32,11.95,27.15,42,46,10,1
0.32,-28.42,27.15,43,46,11,1
0.32,-63.14,27.15,43,46,11,1
0.32,-90.36,27.15,43,46,11,1
0.32,-36.11,27.15,42,47,11,1
0.31,7.43,27.15,42,47,11,1
0.31,-23.43,27.13,43,46,12,1
0.31,-0.03,27.13,43,46,12,1
0.32,0.62,27.13,43,46,12,1
0.31,-41.12,27.13,43,47,10,1
0.32,95.84,27.15,42,46,12,1
0.32,25.2,27.15,43,46,11,1
0.32,-8.92,27.15,43,47,12,1
0.32,-10.39,27.15,43,46,15,1
0.31,-2.1,27.15,42,47,12,1
0.32,35.13,27.15,43,47,12,1
0.31,13.86,27.15,42,47,12,1
0.31,-35.12,27.15,43,47,12,1
0.31,23.15,27.15,42,47,12,1
0.31,51.97,27.15,43,47,12,1
0.32,-32.04,27.15,42,47,11,1
0.31,12.12,27.15,42,47,11,1
0.32,8.98,27.17,42,47,11,1
0.31,20.8,27.17,42,47,11,1
0.31,23.79,27.17,42,47,11,1
0.31,11.44,27.17,42,47,11,1
0.31,0.22,27.15,44,47,13,1
0.31,-4.05,27.15,43,48,9,1
0.31,-6.7,27.15,43,47,10,1
0.31,-17.95,27.15,43,47,9,1
0.31,2.62,27.15,42,47,10,1
0.31,45.25,27.15,43,47,10,1
0.31,-5.58,27.15,43,47,12,1
0.31,24.19,27.15,42,47,11,1
0.31,28.03,27.17,43,47,11,1
0.31,5.46,27.17,42,47,11,1
0.31,2.1,27.17,42,46,13,1
0.31,10.89,27.17,45,47,11,1
0.31,26.17,27.15,43,46,13,1
0.31,3.85,27.15,42,46,12,1
0.31,17.11,27.15,42,47,11,1
0.31,-32.11,27.15,42,46,12,1
0.31,-17.63,27.15,43,46,12,1
0.31,-49.96,27.15,43,46,13,1
0.31,20.78,27.15,42,47,12,1
0.31,32.16,27.15,42,47,11,1
0.31,-6.49,27.17,42,46,12,1
0.31,-9.94,27.17,42,46,12,1
0.31,12.72,27.17,45,46,17,1
0.31,12.08,27.17,45,46,19,1
0.31,24.4,27.17,38,45,21,1
0.31,25.94,27.17,36,46,23,1
0.31,-120.52,27.17,28,46,29,1
0.31,29.01,27.17,33,47,29,1
0.31,-18.47,27.17,33,49,32,1
0.31,76.6,27.17,32,53,24,1
0.31,94.16,27.17,29,53,13,1
0.3,-70.51,27.17,9,51,1,1
0.3,-82.7,27.15,15,53,26,1
0.3,-142.53,27.15,12,58,11,1
0.3,167.58,27.15,13,57,18,1
0.29,82.3,27.15,17,57,25,1
0.29,-289.06,27.15,15,56,27,1
0.29,39.85,27.15,15,57,25,1
0.29,-249.85,27.15,14,57,22,1
0.29,147.11,27.15,14,57,24,1
0.29,97.01,27.15,16,56,25,1
0.29,123.71,27.15,16,57,23,1
0.29,8.06,27.15,16,57,22,1
0.29,-7.93,27.15,17,57,24,1
0.29,-16.13,27.15,18,57,23,1
0.29,-49.25,27.15,20,57,23,1
0.29,-5,27.15,20,58,18,1
0.29,-15.36,27.15,18,58,19,1
0.29,10.74,27.15,18,59,18,1
0.29,21.3,27.15,15,59,16,1
0.29,-4.46,27.15,15,59,20,1
0.29,62.31,27.15,11,61,11,1
0.29,26.61,27.13,4,62,8,1
0.29,-37.29,27.13,13,61,14,1
0.29,21.17,27.13,15,60,15,1
0.29,13.72,27.13,13,58,10,1
0.29,-39.29,27.15,22,59,4,1
0.29,5.13,27.15,12,60,11,1
0.3,5.65,27.15,11,60,12,1
0.3,49.97,27.15,13,60,11,1
0.3,-86.94,27.15,17,60,10,1
0.3,-228.3,27.15,16,61,9,1
0.3,147.73,27.15,12,61,9,1
0.3,53.34,27.15,22,60,11,1
0.3,-169.36,27.15,20,60,16,1
0.3,-64.41,27.15,13,59,15,1
0.3,128.62,27.15,13,60,12,1
0.3,269.29,27.15,11,61,11,1
0.3,-176.63,27.15,18,61,11,1
0.3,129.12,27.15,14,59,14,1
0.3,-36.19,27.15,21,58,17,1
0.3,41.87,27.15,17,58,15,1
0,-0.03,31.03,72,11,28,0
0.09,5.06,31.03,66,-51,54,0
0.14,17.91,31.03,30,-18,44,0
0.14,79.34,31.03,-24,-77,12,0
0.15,228.25,31.03,9,-22,54,0
0.19,-486.42,31.03,2,-7,64,0
0.19,-6.01,31.03,6,7,72,0
0.19,154.76,31.03,39,2,69,0
0.18,32.66,31.13,79,24,36,0
0.17,-16.04,31.13,45,8,48,0
0.17,-29.38,31.13,23,8,55,0
0.16,-9.28,31.13,32,9,59,0
0.16,-5.46,31.11,26,8,60,0
0.16,2.31,31.11,25,9,59,0
0.15,8.32,31.11,31,12,55,0
0.15,18.72,31.11,21,7,60,0
0.14,15.08,31.05,19,8,61,0
0.15,-63.81,31.05,19,8,62,0
0.15,-60.33,31.05,19,9,59,0
0.14,-1.21,31.05,24,12,55,0
0.14,-74.34,31.11,27,14,52,0
0.14,209.16,31.11,29,12,57,0
0.14,11.51,31.11,50,7,57,0
0.14,-41.12,31.11,73,11,62,0
0.14,30.9,31.17,27,12,62,0
0.15,65.97,31.17,9,11,64,0
0.14,-105.74,31.17,13,6,59,0
0.14,40.38,31.17,4,8,66,0
0.14,-155.78,31.23,5,10,63,0
0.14,108.79,31.23,7,10,62,0
0.14,185.57,31.23,6,11,62,0
0.13,74.97,31.23,13,11,62,0
0.13,-38.17,31.05,8,10,65,0
0.13,-257.05,31.05,6,9,63,0
0.13,168.09,31.05,5,9,64,0
0.13,5.9,31.05,6,9,63,0
0.13,-102.95,30.95,6,8,64,0
0.13,-34.4,30.95,7,6,66,0
0.13,20.12,30.95,7,7,64,0
0.12,267.68,30.95,6,7,64,0
0.13,-40.2,31.25,6,7,64,0
0.13,-10.99,31.25,5,5,63,0
0.13,-89.37,31.25,5,6,64,0
0.13,-123.25,31.25,6,5,64,0
0.13,47.51,31.37,5,6,64,0
0.13,20.87,31.37,7,7,63,0
0.13,101.39,31.37,8,7,63,0
0.13,24.31,31.37,7,6,63,0
0.13,23.38,31.43,10,7,64,0
0.13,-28.01,31.43,6,7,64,0
0.13,161.04,31.43,5,6,64,0
0.13,22.71,31.43,5,7,63,0
0.13,-355.41,31.49,4,6,64,0
0.12,-180.21,31.49,2,7,64,0
0.12,212.71,31.49,1,8,63,0
0.12,117.33,31.49,0,8,64,0
0.12,107.04,31.51,0,6,64,0
0.12,-93.6,31.51,3,10,64,0
0.12,42.76,31.51,2,10,63,0
0.12,133.37,31.51,4,9,64,0
0.12,101.63,31.57,8,11,64,0
0.12,35.55,31.57,2,11,60,0
0.12,-160.06,31.57,6,11,63,0
0.12,-161.57,31.57,4,11,63,0
0.12,24.81,31.59,5,11,63,0
0.12,68.26,31.59,7,11,63,0
0.12,-115.76,31.59,6,11,62,0
0.12,-20.74,31.59,9,12,60,0
0.12,49.05,31.55,11,10,66,0
0.12,38.91,31.55,9,11,62,0
0.13,13.7,31.55,9,11,62,0
0.12,17.15,31.55,8,11,62,0
0.12,-41.92,31.53,7,11,62,0
0.12,10.74,31.53,8,11,63,0
0.12,4.74,31.53,10,10,62,0
0.12,-2.91,31.53,9,11,62,0
0.12,27.82,31.51,9,11,63,0
0.12,-6.97,31.51,8,12,63,0
0.12,-3.11,31.51,9,11,63,0
0.12,-66.68,31.51,9,12,63,0
0.12,23.12,31.49,10,13,62,0
0.12,-52.58,31.49,10,12,62,0
0.12,-22.71,31.49,17,14,64,0
0.12,-78.39,31.49,4,14,57,0
0.12,12.01,31.49,53,20,23,0
0.12,65.72,31.49,49,24,-30,0
0.12,-28.04,31.49,40,18,-41,0
0.12,-89.54,31.49,36,16,-59,0
0.12,167.35,31.47,28,14,-53,0
0.11,294.2,31.47,25,14,-55,0
0.1,-162.05,31.47,27,13,-55,0
0.1,-61.81,31.47,28,13,-58,0
0.1,90.75,31.57,30,13,-66,0
0.1,-84.86,31.57,12,17,-58,0
0.1,15.81,31.57,13,18,-64,0
0.1,36.63,31.57,5,19,-57,0
0.09,-19.34,31.59,5,18,-56,0
0.08,34.53,31.59,10,18,-61,0
0.08,-89.19,31.59,13,18,-58,0
0.09,193.33,31.59,15,19,-60,0
0.11,-109.43,31.63,13,16,-57,0
0.11,-101.5,31.63,13,20,-64,0
0.12,27.15,31.63,11,17,-57,0
0.13,70.94,31.63,10,18,-59,0
0.13,112.54,31.65,9,18,-59,0
0.13,-81.88,31.65,5,17,-61,0
0.14,-186.91,31.65,5,17,-63,0
0.14,-46.08,31.65,7,17,-60,0
0.14,12.48,31.69,6,17,-62,0
0.15,209.45,31.69,7,16,-61,0
0.15,88.73,31.69,8,18,-56,0
0.16,-13.48,31.69,9,18,-60,0
0.15,-20.82,31.71,8,18,-56,0
0.16,-18.95,31.71,11,17,-58,0
0.17,15.58,31.71,9,21,-63,0
0.17,208.27,31.71,10,20,-61,0
0.16,-239.54,31.71,10,21,-60,0
0.15,39.32,31.71,14,21,-63,0
0.15,29.36,31.71,71,25,-16,0
0.15,-227.11,31.71,30,33,41,0
0.15,129.58,31.71,42,32,31,0
0.15,237.54,31.71,32,20,61,0
0.15,132.09,31.71,20,20,53,0
0.15,-140.58,31.71,32,27,44,0
0.15,-64.42,31.69,40,25,47,0
0.15,47.69,31.69,30,20,53,0
0.15,67.35,31.69,23,17,55,0
0.15,37.94,31.69,15,11,60,0
0.15,-12.07,31.65,30,12,56,0
0.15,-101.36,31.65,32,17,55,0
0.15,66.27,31.65,20,16,57,0
0.15,155.44,31.65,29,17,57,0
0.15,-56.28,31.67,31,17,57,0
0.15,-72.65,31.67,16,17,57,0
0.15,-4.15,31.67,17,17,59,0
0.15,-67.1,31.67,10,16,58,0
0.15,26.16,31.69,24,17,59,0
0.15,14.12,31.69,27,16,54,0
0.15,-23.51,31.69,34,17,54,0
0.15,-3.9,31.69,25,18,57,0
0.15,12.92,31.69,31,15,51,0
0.16,-17.13,31.69,35,13,53,0
0.15,83.92,31.69,32,15,51,0
0.15,34.72,31.69,33,17,53,0
0.15,-118.66,31.69,37,17,52,0
0.15,14.02,31.69,31,16,52,0
0.15,-37.24,31.69,35,17,52,0
0.16,-15.41,31.69,37,16,49,0
0.15,26.2,31.71,36,16,49,0
0.15,-20.19,31.71,39,17,49,0
0.15,12.1,31.71,40,16,48,0
0.15,-6.54,31.71,39,16,48,0
0.15,-3.44,31.71,40,15,48,0
0.15,34.78,31.71,41,16,48,0
0.15,9.27,31.71,37,15,50,0
0.15,-4.04,31.71,41,16,49,0
0.15,5.76,31.73,40,16,48,0
0.16,0.85,31.73,39,16,48,0
0.15,33.66,31.73,39,16,48,0
0.16,-35.37,31.73,40,16,48,0
0.15,-9.76,31.73,42,16,48,0
0.15,10.82,31.73,39,15,45,0
0.16,9.97,31.73,50,17,37,0
0.15,5.1,31.73,46,17,38,0
0.15,1.71,31.71,50,16,39,0
0.15,21.99,31.71,42,17,47,0
0.15,-8.17,31.71,36,18,50,0
0.15,-4.98,31.71,36,18,50,0
0.16,-9.33,31.71,34,17,50,0
0.15,14.11,31.71,37,16,51,0
0.16,-9.58,31.71,37,17,51,0
0.15,0.68,31.71,32,17,52,0
0.15,-5.12,31.71,33,17,53,0
0.16,-7.7,31.71,34,17,52,0
0.15,11.59,31.71,34,16,53,0
0.15,21.18,31.71,31,16,53,0
0.15,-4.68,31.69,33,17,53,0
0.16,-19.34,31.69,32,16,52,0
0.15,4.08,31.69,35,16,52,0
0.16,14.87,31.69,35,16,51,0
0.16,-26.47,31.71,35,16,53,0
0.16,-13.23,31.71,34,16,53,0
0.16,3.75,31.71,34,16,53,0
0.16,4.79,31.71,34,16,52,0
0.16,-12.11,31.73,33,16,53,0
0.16,8.42,31.73,33,16,53,0
0.16,3.3,31.73,33,16,53,0
0.16,-1.25,31.73,32,16,53,0
0.16,13.46,31.73,30,16,55,0
0.16,5.71,31.73,28,15,55,0
0.16,-5.79,31.73,28,16,56,0
0.16,7.03,31.73,27,16,57,0
0.16,-9.47,31.75,26,16,57,0
0.16,-18.24,31.75,26,16,57,0
0.16,35.26,31.75,25,16,57,0
0.16,6.66,31.75,26,16,56,0
0.16,-14.42,31.69,26,16,57,0
0.16,14.78,31.69,26,16,57,0
0.16,5.06,31.69,25,15,56,0
0.16,-7.5,31.69,26,16,56,0
0.16,8.65,31.73,26,16,57,0
0.16,3.52,31.73,25,16,56,0
0.16,-9.91,31.73,27,16,57,0
0.16,0.39,31.73,26,16,57,0
0.16,-7.17,31.71,26,16,57,0
0.16,-6.61,31.71,24,16,56,0
0.16,11.35,31.71,30,16,55,0
0.16,1.49,31.71,19,15,60,0
0.16,-2.63,31.71,49,26,54,0
0.16,-6.31,31.71,29,36,37,0
0.16,-18.66,31.71,11,50,40,0
0.16,-39.97,31.71,-9,44,60,0
0.16,-25.94,31.69,21,56,59,0
0.16,-20.6,31.69,12,59,24,0
0.17,49.17,31.69,16,59,23,0
0.17,3.36,31.69,11,57,20,0
0.17,108.28,31.67,19,57,21,0
0.17,-53.48,31.67,20,59,21,0
0.17,35.71,31.67,13,58,27,0
0.17,15.09,31.67,7,57,6,0
0.17,-0.51,31.67,6,56,16,0
0.17,34.66,31.67,1,57,19,0
0.17,45.4,31.67,3,60,22,0
0.16,32.13,31.67,0,60,16,0
0.16,-30.83,31.65,4,61,13,0
0.16,4.4,31.65,2,61,12,0
0.16,-28.3,31.65,2,61,15,0
0.16,-48.88,31.65,3,61,16,0
0.16,12.15,31.63,2,61,14,0
0.16,-30.21,31.63,3,61,15,0
0.16,-18.43,31.63,3,61,16,0
0.16,14.07,31.63,3,61,15,0
0.16,9.7,31.65,3,61,15,0
0.16,-12.02,31.65,3,61,15,0
0.16,-4.12,31.65,3,61,15,0
0.16,7.64,31.65,3,61,15,0
0.16,-11.12,31.63,3,61,15,0
0.16,5.11,31.63,2,61,15,0
0.16,10.87,31.63,2,61,15,0
0.16,-9.66,31.63,3,61,15,0
0,-0.03,26.97,33,23,50,0
0.21,5.06,26.97,33,24,50,0
0.29,17.91,26.97,32,25,50,0
0.28,79.34,26.97,32,25,49,0
0.29,228.25,26.97,32,25,50,0
0.28,-486.5,26.97,30,25,50,0
0.28,-5.9,26.97,30,24,49,0
0.28,156.15,26.97,34,29,45,0
0.29,46.78,26.97,40,24,48,0
0.29,4.05,26.97,30,26,45,0
0.28,0.13,26.97,35,25,48,0
0.29,0.72,26.97,32,26,50,0
0.29,3.13,26.99,30,29,51,0
0.29,12.74,26.99,30,28,49,0
0.29,17.69,26.99,25,29,50,0
0.29,-13.54,26.99,25,27,50,0
0.29,11.85,26.99,29,27,48,0
0.29,60.13,26.99,41,30,40,0
0.29,98.94,26.99,42,37,27,0
0.28,-205.73,26.99,50,38,17,0
0.28,-94.84,26.97,46,38,15,0
0.28,-70.41,26.97,51,34,21,0
0.28,44.61,26.97,48,34,23,0
0.27,138.7,26.97,54,33,32,0
0.28,118.16,27.01,45,32,31,0
0.27,-1.8,27.01,48,34,29,0
0.27,-14.09,27.01,50,33,34,0
0.27,-5.64,27.01,51,34,27,0
0.27,-17.04,26.97,46,34,22,0
0.27,-33.42,26.97,50,34,23,0
0.27,-11.09,26.97,51,34,23,0
0.27,0.34,26.97,51,34,23,0
0.27,15.1,26.99,53,34,24,0
0.27,6.07,26.99,50,34,23,0
0.27,6.32,26.99,54,33,23,0
0.27,7.46,26.99,50,34,19,0
0.28,-6.84,26.97,51,34,19,0
0.27,-6.4,26.97,50,34,19,0
0.27,-10.94,26.97,52,34,19,0
0.27,9.12,26.97,51,34,20,0
0.27,9.23,26.97,47,34,19,0
0.27,-3.2,26.97,49,34,20,0
0.28,-12.92,26.97,53,33,23,0
0.27,22.14,26.97,51,33,22,0
0.28,36.07,26.97,51,33,22,0
0.27,-11.05,26.97,51,34,20,0
0.28,-0.15,26.97,50,34,22,0
0.27,1.84,26.97,55,33,23,0
0.28,-4.98,26.97,52,33,22,0
0.27,0.7,26.97,51,33,23,0
0.27,-9.95,26.97,51,33,21,0
0.27,6.53,26.97,42,32,23,0
0.27,-1.48,26.95,52,32,26,0
0.27,-4.66,26.95,53,32,27,0
0.27,7.66,26.95,47,32,23,0
0.27,2.54,26.95,51,32,24,0
0.27,3.09,26.99,51,31,21,0
0.27,-12.63,26.99,49,32,23,0
0.27,-41.04,26.99,51,32,24,0
0.27,15.37,26.99,51,32,24,0
0.27,30.19,26.99,51,32,24,0
0.27,12.5,26.99,51,32,24,0
0.27,-1.72,26.99,50,32,24,0
0.27,-15.73,26.99,51,32,25,0
0.27,10.76,26.99,51,32,25,0
0.28,-11.98,26.99,50,31,25,0
0.27,5.06,26.99,53,32,22,0
0.28,-6.13,26.99,51,32,23,0
0.27,-1.67,27.01,51,32,24,0
0.27,-0.97,27.01,51,32,24,0
0.28,1.93,27.01,49,32,23,0
0.27,-2.03,27.01,49,31,25,0
0.27,-4.64,27.03,50,32,24,0
0.27,-7.09,27.03,49,32,22,0
0.27,9.27,27.03,51,32,23,0
0.27,-10.67,27.03,51,32,23,0
0.27,2.79,26.99,52,32,22,0
0.27,6.74,26.99,53,32,22,0
0.27,-1.69,26.99,52,32,21,0
0.27,0.24,26.99,51,32,22,0
0.28,-1.57,27.01,52,32,21,0
0.27,6.95,27.01,52,32,22,0
0.28,3.25,27.01,53,32,21,0
0.27,4.39,27.01,52,32,23,0
0.28,-2.94,27.03,52,32,22,0
0.27,-4.25,27.03,53,32,20,0
0.27,-4.66,27.03,51,32,20,0
0.27,-4.45,27.03,52,32,22,0
0.27,8.48,27.03,52,32,22,0
0.28,12.37,27.03,51,32,22,0
0.27,5.39,27.03,51,32,23,0
0.28,1.28,27.03,51,32,22,0
0.27,-5.59,27.03,52,32,22,0
0.27,-9.49,27.03,51,32,23,0
0.27,-6.72,27.03,52,32,22,0
0.27,-3.88,27.03,51,32,22,0
0.27,3.64,27.03,51,32,23,0
0.27,4.43,27.03,50,32,22,0
0.27,-0.34,27.03,58,33,20,0
0.28,2.47,27.03,52,34,15,0
0.27,-1.96,27.05,58,26,15,0
0.27,-3.26,27.05,63,1,15,0
0.27,3.21,27.05,58,19,16,0
0.27,-6.11,27.05,61,9,23,0
0.27,-6.22,27.03,68,13,19,0
0.27,-19.67,27.03,67,11,15,0
0.27,26.02,27.03,65,9,13,0
0.27,-28.75,27.03,64,9,10,0
0.27,-31.7,27.03,64,9,13,0
0.27,-13.48,27.03,65,8,11,0
0.27,-11.53,27.03,63,9,11,0
0.27,2.99,27.03,64,8,12,0
0.27,16.71,27.05,63,8,11,0
0.27,-0.03,27.05,64,8,9,0
0.27,-2.41,27.05,64,9,8,0
0.27,8.16,27.05,64,8,7,0
0.27,7.42,27.01,65,8,8,0
0.27,0.46,27.01,65,8,8,0
0.27,13.08,27.01,65,8,8,0
0.27,2.3,27.01,64,8,8,0
0.27,4.2,27.01,65,8,8,0
0.27,1.33,27.01,65,8,9,0
0.27,-7.98,27.01,66,7,10,0
0.27,-1.45,27.01,64,9,8,0
0.27,2.33,27.01,64,9,9,0
0.27,-5.01,27.01,71,7,11,0
0.27,13.05,27.01,66,8,8,0
0.27,-2.96,27.01,65,8,9,0
0.27,0.94,27.01,65,8,10,0
0.27,7.63,27.01,66,8,9,0
0.27,7.62,27.01,64,8,10,0
0.27,2.02,27.01,64,8,10,0
0.27,-8.6,27.03,64,8,10,0
0.27,-7.49,27.03,64,8,11,0
0.27,2.47,27.03,65,8,10,0
0.27,2.92,27.03,65,8,11,0
0.27,-2.9,26.99,64,8,11,0
0.27,1.57,26.99,65,8,11,0
0.27,-1.46,26.99,64,8,11,0
0.27,0.13,26.99,65,8,10,0
0.27,0.3,27.01,64,8,10,0
0.27,-2.32,27.01,64,8,10,0
0.27,-1.63,27.01,65,8,11,0
0.27,-0.03,27.01,64,8,10,0
0.27,0.69,27.01,66,8,10,0
0.27,-0.26,27.01,65,8,9,0
0.27,-4.61,27.01,64,7,11,0
0.27,1.21,27.01,62,8,11,0
0.27,-0.76,26.97,64,8,10,0
0.28,-4.8,26.97,65,8,9,0
0.27,3.39,26.97,63,8,10,0
0.27,-4.91,26.97,65,7,11,0
0.27,3.28,26.97,65,7,12,0
0.27,1.23,26.97,66,9,9,0
0.27,-3.51,26.97,63,8,11,0
0.27,4.08,26.97,64,8,10,0
0.27,3.47,26.97,64,8,11,0
0.27,-13.73,26.97,66,8,10,0
0.27,9.35,26.97,60,10,9,0
0.27,1.47,26.97,71,5,8,0
0.27,-8.23,26.99,65,6,7,0
0.27,-0.79,26.99,67,9,5,0
0.27,1.31,26.99,61,8,10,0
0.27,-31.01,26.99,60,4,10,0
0.27,18.31,26.97,62,3,9,0
0.27,20.53,26.97,63,7,5,0
0.27,-15.75,26.97,62,0,9,0
0.27,20.82,26.97,65,3,7,0
0.27,14.07,26.97,64,3,12,0
0.27,49.15,26.97,64,4,11,0
0.27,-7.47,26.97,66,1,15,0
0.26,9.81,26.97,66,1,14,0
0.27,-18.43,26.95,60,-4,18,0
0.26,-8.97,26.95,67,4,18,0
0.26,-15.55,26.95,63,-2,15,0
0.26,-13.08,26.95,64,2,12,0
0.26,-9.08,26.95,66,8,7,0
0.27,36.04,26.95,68,4,10,0
0.26,18.03,26.95,63,8,8,0
0.25,-32.67,26.95,64,9,11,0
0.26,-45.03,26.95,66,8,11,0
0.26,80.36,26.95,64,8,12,0
0.26,-8.96,26.95,64,9,12,0
0.26,-9.15,26.95,63,8,13,0
0.26,7,26.91,64,8,12,0
0.26,-13.43,26.91,64,8,13,0
0.26,1.93,26.91,65,8,14,0
0.26,-2.08,26.91,64,8,13,0
0.26,-0.38,26.91,63,9,13,0
0.26,7.78,26.91,64,9,13,0
0.26,0.54,26.91,64,10,14,0
0.26,-2.45,26.91,65,9,12,0
0.26,2.87,26.93,61,9,12,0
0.26,-10,26.93,64,8,10,0
0.26,5.83,26.93,66,12,8,0
0.26,-2.39,26.93,64,12,13,0
0.26,-6.96,26.91,64,10,12,0
0.26,4.06,26.91,64,11,12,0
0.26,-5.76,26.91,64,11,11,0
0.26,0.13,26.91,64,10,12,0
0.26,-6.34,26.89,63,11,12,0
0.26,-2.7,26.89,63,10,12,0
0.26,-2.89,26.89,64,11,13,0
0.26,-9.13,26.89,64,11,12,0
0.26,11.67,26.87,63,11,12,0
0.26,3.19,26.87,64,11,12,0
0.25,-11.72,26.87,62,11,13,0
0.26,6.38,26.87,64,11,13,0
0.26,-7.17,26.91,63,11,13,0
0.26,8.48,26.91,63,12,13,0
0.26,5.69,26.91,63,12,13,0
0.26,-8.26,26.91,63,11,13,0
0.26,5.09,26.89,63,11,14,0
0.26,-2.46,26.89,63,11,13,0
0.26,-4.12,26.89,64,11,14,0
0.26,5.47,26.89,63,11,14,0
0.26,-2.78,26.87,63,11,14,0
0.26,0.54,26.87,64,10,14,0
0.26,8.15,26.87,63,11,14,0
0.26,-6.36,26.87,63,11,14,0
0.26,4.7,26.89,62,11,14,0
0.26,1.84,26.89,64,12,14,0
0.26,-10.34,26.89,63,12,14,0
0.26,10.4,26.89,64,12,14,0
0.26,1.09,26.87,64,11,14,0
0.26,0.51,26.87,63,11,14,0
0.26,-3.93,26.87,63,12,14,0
0.26,-2.13,26.87,62,11,13,0
0.26,2.86,26.85,63,11,14,0
0.26,14.89,26.85,65,11,14,0
0.26,-21.39,26.85,64,11,12,0
0.26,9.43,26.85,63,11,12,0
0.26,1.62,26.87,63,11,13,0
0.26,-2.03,26.87,63,12,13,0
0.26,5.75,26.87,63,12,14,0
0.26,-1.97,26.87,62,12,13,0
0.26,-0.65,26.85,63,12,14,0
0.25,5.35,26.85,64,12,14,0
0.26,-15.2,26.85,62,12,13,0
0.26,5.82,26.85,63,12,13,0
0,-0.03,30.65,-34,-34,45,0
0.02,5.06,30.65,-35,-34,45,0
0.05,17.91,30.65,-35,-34,45,0
0.04,79.34,30.65,-34,-33,45,0
0.04,228.25,30.65,-34,-34,44,0
0.05,-486.5,30.65,-34,-34,45,0
0.05,-5.9,30.65,-35,-34,45,0
0.05,156.15,30.65,-35,-34,45,0
0.04,46.78,30.63,-34,-34,45,0
0.04,4.05,30.63,-33,-33,46,0
0.05,0.16,30.63,-35,-33,45,0
0.05,0.85,30.63,-35,-33,45,0
0.05,3.75,30.61,-35,-34,45,0
0.05,14.72,30.61,-35,-33,45,0
0.05,13.63,30.61,-35,-34,45,0
0.05,-13.9,30.61,-35,-33,45,0
0.05,16.74,30.59,-35,-33,45,0
0.05,68.02,30.59,-35,-34,45,0
0.05,53.78,30.59,-35,-34,45,0
0.05,-271.96,30.59,-35,-33,45,0
0.05,-20.27,30.57,-35,-33,45,0
0.05,29.45,30.57,-35,-33,45,0
0.05,33.27,30.57,-34,-34,45,0
0.05,24.06,30.57,-35,-33,45,0
0.04,-3.93,30.57,-36,-33,45,0
0.05,11.8,30.57,-35,-34,45,0
0.05,10.99,30.57,-35,-33,45,0
0.05,-23.35,30.57,-34,-34,46,0
0.05,11.13,30.53,-34,-34,46,0
0.05,20.12,30.53,-35,-34,46,0
0.05,19.03,30.53,-34,-33,46,0
0.05,-27.8,30.53,-35,-34,45,0
0.05,-35.67,30.51,-36,-34,44,0
0.05,-54.91,30.51,-34,-34,45,0
0.05,-11.77,30.51,-35,-33,45,0
0.05,-6.1,30.51,-35,-33,45,0
0.05,75.83,30.49,-35,-33,45,0
0.05,19.81,30.49,-35,-33,44,0
0.04,-10.68,30.49,-35,-33,45,0
0.04,-32.5,30.49,-35,-34,45,0
0.04,12.83,30.47,-35,-34,45,0
0.04,7.02,30.47,-35,-33,44,0
0.05,-24.41,30.47,-34,-33,45,0
0.05,14.03,30.47,-36,-34,44,0
0.05,-0.22,30.47,-35,-33,45,0
0.04,-6.34,30.47,-35,-34,45,0
0.04,10.81,30.47,-35,-33,45,0
0.05,-1.19,30.47,-35,-34,45,0
0.04,-34.24,30.43,-35,-34,44,0
0.05,15.32,30.43,-35,-33,45,0
0.04,-6.69,30.43,-35,-33,45,0
0.05,-6.35,30.43,-35,-33,45,0
0.04,16.36,30.41,-35,-33,45,0
0.04,-0.63,30.41,-35,-32,46,0
0.05,8.76,30.41,-35,-35,46,0
0.04,19.55,30.41,-29,-35,45,0
0.04,-8.56,30.41,-28,-36,48,0
0.04,-28.93,30.41,-31,-35,47,0
0.05,-35.5,30.41,-31,-34,46,0
0.05,31.11,30.41,-28,-33,47,0
0.04,3.65,30.37,-31,-37,44,0
0.04,7.65,30.37,-32,-34,47,0
0.04,-12.42,30.37,-34,-34,46,0
0.04,24.08,30.37,-33,-34,46,0
0.04,10.79,30.33,-33,-34,46,0
0.04,-21.66,30.33,-32,-34,46,0
0.05,39.22,30.33,-32,-34,46,0
0.04,18.06,30.33,-33,-34,47,0
0.05,-2.45,30.35,-31,-34,47,0
0.04,8.81,30.35,-34,-34,47,0
0.05,-27.45,30.35,-31,-34,46,0
0.04,-88.57,30.35,-32,-35,47,0
0.05,129.69,30.33,-32,-35,44,0
0.04,71.9,30.33,-28,-36,46,0
0.04,-17.78,30.33,-29,-32,44,0
0.05,15.56,30.33,-33,-33,48,0
0.04,11.98,30.33,-35,-34,45,0
0.05,-30.2,30.33,-35,-34,44,0
0.04,-3.09,30.33,-35,-34,45,0
0.05,-47.95,30.33,-35,-34,45,0
0.04,-11.93,30.29,-35,-34,44,0
0.05,6.43,30.29,-35,-34,45,0
0.05,24.75,30.29,-39,-34,44,0
0.04,-6.94,30.29,-35,-34,44,0
0.05,40.51,30.27,-33,-34,46,0
0.05,0.81,30.27,-23,-34,51,0
0.05,12.81,30.27,-19,-36,53,0
0.05,18.53,30.27,-22,-36,52,0
0.05,-32.27,30.23,-19,-34,52,0
0.05,122.83,30.23,-18,-33,52,0
0.05,-26.59,30.23,-21,-32,53,0
0.05,-5.26,30.23,-26,-31,51,0
0.05,158.36,30.23,-25,-31,52,0
0.05,-160.16,30.23,-27,-32,51,0
0.05,6.42,30.23,-24,-32,52,0
0.05,7.07,30.23,-27,-32,50,0
0.05,-44.35,30.23,-31,-32,49,0
0.05,-41.76,30.23,-35,-32,47,0
0.05,-64.02,30.23,-36,-31,47,0
0.05,113.12,30.23,-37,-32,46,0
0.05,-82.06,30.21,-36,-32,44,0
0.05,59.42,30.21,-43,-33,38,0
0.05,-158.5,30.21,-50,-33,31,0
0.05,30.16,30.21,-48,-33,33,0
0.05,286.99,30.21,-48,-33,33,0
0.05,107.75,30.21,-48,-33,32,0
0.05,2.3,30.21,-48,-33,32,0
0.05,-414.58,30.21,-48,-33,31,0
0.05,-227.58,30.19,-48,-32,33,0
0.05,33.68,30.19,-49,-33,31,0
0.05,65.26,30.19,-48,-32,32,0
0.05,83.47,30.19,-49,-33,32,0
0.05,31.73,30.17,-49,-32,32,0
0.05,-31.98,30.17,-48,-32,32,0
0.05,27.13,30.17,-48,-33,33,0
0.05,28.14,30.17,-48,-32,33,0
0.05,19.9,30.15,-47,-34,32,0
0.05,102.95,30.15,-48,-33,33,0
0.05,55.69,30.15,-48,-33,32,0
0.05,-23.12,30.15,-50,-32,31,0
0.05,-48.18,30.15,-48,-33,31,0
0.05,-5.3,30.15,-48,-33,32,0
0.05,-59.95,30.15,-49,-33,31,0
0.05,35.41,30.15,-48,-33,32,0
0.05,40.84,30.13,-48,-33,32,0
0.05,-64.56,30.13,-49,-33,32,0
0.04,19.69,30.13,-48,-33,31,0
0.05,20.07,30.13,-48,-33,31,0
0.05,-3.89,30.11,-49,-33,31,0
0.05,33.54,30.11,-48,-33,31,0
0.05,-12.1,30.11,-48,-33,31,0
0.05,1.29,30.11,-48,-33,32,0
0.05,-11.49,30.09,-48,-33,31,0
0.05,-2.87,30.09,-49,-33,31,0
0.05,40.06,30.09,-48,-33,31,0
0.05,16.75,30.09,-48,-33,31,0
0.05,-51.57,30.11,-49,-33,31,0
0.05,-13.76,30.11,-49,-33,32,0
0.05,-1.84,30.11,-48,-33,31,0
0.05,39.26,30.11,-49,-33,31,0
0.05,33.17,30.07,-49,-33,31,0
0.05,7.03,30.07,-48,-33,31,0
0.05,-23.78,30.07,-49,-33,31,0
0.05,-0.41,30.07,-49,-33,31,0
0.05,-31.81,30.05,-49,-33,31,0
0.05,22.7,30.05,-49,-33,31,0
0.05,47.66,30.05,-49,-33,31,0
0.05,-34.44,30.05,-49,-33,31,0
0.05,-3.76,30.05,-48,-33,32,0
0.05,4.25,30.05,-50,-33,30,0
0.05,-40.8,30.05,-49,-33,30,0
0.05,15.02,30.05,-49,-33,30,0
0.05,1.15,30.01,-49,-34,29,0
0.05,-65.12,30.01,-50,-33,29,0
0.05,-5.79,30.01,-49,-33,30,0
0.05,-1.91,30.01,-49,-33,30,0
0.05,24.36,30.01,-49,-33,30,0
0.05,48.87,30.01,-49,-33,30,0
0.05,35.47,30.01,-50,-33,30,0
0.05,-5.99,30.01,-49,-32,30,0
0.05,2.59,29.97,-49,-33,29,0
0.05,-8.74,29.97,-49,-33,30,0
0.05,-4.96,29.97,-49,-33,29,0
0.05,-1.65,29.97,-49,-33,29,0
0.05,1.6,29.97,-49,-31,31,0
0.05,-11.23,29.97,-50,-34,28,0
0.05,28.54,29.97,-49,-32,30,0
0.05,16.22,29.97,-49,-34,29,0
0.05,-53.68,29.95,-49,-33,31,0
0.05,22.94,29.95,-49,-34,29,0
0.05,24.48,29.95,-48,-33,32,0
0.05,-14.77,29.95,-49,-33,29,0
0.05,19.73,29.95,-49,-34,27,0
0.05,-19.28,29.95,-47,-33,30,0
0.05,-7.41,29.95,-49,-34,30,0
0.05,34.04,29.95,-48,-33,32,0
0.05,-92.56,29.93,-47,-33,32,0
0.05,-72.71,29.93,-47,-33,33,0
0.05,110.8,29.93,-47,-33,33,0
0.05,46.37,29.93,-47,-33,33,0
0.05,7.5,29.93,-47,-33,33,0
0.05,2.95,29.93,-47,-33,33,0
0.05,-25.9,29.93,-48,-33,33,0
0.05,-6.47,29.93,-47,-33,32,0
0.05,-2.45,29.91,-48,-33,33,0
0.05,-29.19,29.91,-47,-33,33,0
0.05,-3.44,29.91,-47,-33,33,0
0.05,3.87,29.91,-47,-33,33,0
0.05,-22.67,29.87,-48,-33,32,0
0.05,17.04,29.87,-48,-34,33,0
0.05,7.07,29.87,-47,-33,33,0
0.05,-29.76,29.87,-48,-33,33,0
0.05,14.66,29.87,-47,-33,33,0
0.05,5.09,29.87,-47,-33,32,0
0.05,-26.57,29.87,-47,-34,33,0
0.05,14.64,29.87,-47,-33,33,0
0.05,1.52,29.87,-49,-33,33,0
0.05,-18.1,29.87,-47,-33,35,0
0.05,8.09,29.87,-47,-33,33,0
0.05,-9.86,29.87,-47,-33,34,0
0.05,-7.84,29.85,-47,-33,34,0
0.05,-2.45,29.85,-47,-32,33,0
0.05,9.47,29.85,-47,-33,34,0
0.05,26.11,29.85,-46,-32,35,0
0.05,3.67,29.87,-45,-31,42,0
0.05,-24.26,29.87,-19,-29,56,0
0.05,30.77,29.87,-22,-34,52,0
0.06,8.8,29.87,-26,-33,50,0
0.06,-90.01,29.85,-27,-33,50,0
0.06,62.22,29.85,-27,-32,50,0
0.05,208.76,29.85,-28,-33,50,0
0.05,-96.67,29.85,-28,-32,50,0
0.06,-42.53,29.85,-28,-33,49,0
0.05,-4.9,29.85,-28,-30,50,0
0.05,-14.65,29.85,-28,-32,48,0
0.05,1.59,29.85,-29,-32,50,0
0.05,-17.49,29.85,-22,-33,52,0
0.05,-8.04,29.85,-22,-33,53,0
0.05,1.48,29.85,-28,-33,53,0
0.05,-6.29,29.85,-27,-33,51,0
0.05,36.9,29.83,-26,-33,52,0
0.06,0.4,29.83,-26,-33,50,0
0.05,-16.64,29.83,-26,-33,51,0
0.06,0.57,29.83,-26,-33,51,0
0.06,5.15,29.83,-26,-32,51,0
0.06,6.78,29.83,-25,-33,51,0
0.05,11.72,29.83,-25,-33,51,0
0.06,1.59,29.83,-26,-33,51,0
0.06,-20.69,29.83,-25,-33,51,0
0.06,4.15,29.83,-26,-32,51,0
0.06,2.23,29.83,-26,-33,51,0
0.06,2.17,29.83,-26,-32,51,0
0.06,4.81,29.83,-25,-33,51,0
0.06,-13.13,29.83,-26,-33,50,0
0.06,24.96,29.83,-24,-33,51,0
0.06,13.36,29.83,-25,-32,49,0
0.06,-20.67,29.83,-25,-34,50,0
0.06,22.72,29.83,-26,-32,51,0
0.06,16.84,29.83,-26,-39,48,0
0.06,-50.01,29.83,-22,-35,57,0
0,-0.03,33.49,-20,-17,56,0
0.16,5.06,33.49,-24,-17,61,0
0.23,17.91,33.49,-26,-15,59,0
0.22,79.34,33.49,-26,-13,61,0
0.22,228.25,33.49,-27,-15,58,0
0.23,-486.48,33.49,-22,-15,58,0
0.23,-5.1,33.49,-24,-14,62,0
0.23,159.69,33.49,-23,-13,60,0
0.23,62.15,33.59,-25,-14,59,0
0.23,38.37,33.59,-25,-13,59,0
0.23,-26.09,33.59,-25,-14,59,0
0.23,9.92,33.59,-26,-14,59,0
0.23,71.13,33.55,-25,-14,59,0
0.23,153.24,33.55,-25,-14,59,0
0.23,65.77,33.55,-25,-14,59,0
0.23,8.93,33.55,-26,-14,59,0
0.23,-9.88,33.5,-25,-14,59,0
0.23,-19.43,33.5,-25,-14,59,0
0.23,-94.83,33.5,-25,-14,59,0
0.23,-328.33,33.5,-25,-14,59,0
0.23,-105.01,33.49,-24,-14,59,0
0.23,18.73,33.49,-25,-14,59,0
0.23,32.98,33.49,-25,-14,59,0
0.23,23.65,33.49,-25,-14,59,0
0.23,18.05,33.49,-25,-14,59,0
0.23,10.09,33.49,-25,-14,59,0
0.23,11.29,33.49,-25,-14,59,0
0.23,7.27,33.49,-25,-14,59,0
0.23,8.44,33.49,-24,-14,59,0
0.23,7.77,33.49,-25,-14,59,0
0.23,5.03,33.49,-25,-14,59,0
0.23,3.62,33.49,-25,-13,60,0
0.23,5.16,33.47,-25,-14,59,0
0.23,5.69,33.47,-25,-14,59,0
0.23,2.1,33.47,-25,-14,59,0
0.23,0.98,33.47,-25,-14,59,0
0.23,2.38,33.45,-25,-14,59,0
0.23,3.85,33.45,-25,-14,59,0
0.23,2.71,33.45,-24,-14,59,0
0.23,3.21,33.45,-25,-14,59,0
0.23,-3.08,33.45,-26,-13,58,0
0.23,2.32,33.45,-24,-14,60,0
0.23,1.79,33.45,-23,-14,59,0
0.23,-0.71,33.45,-23,-14,60,0
0.23,-2.07,33.43,-24,-13,60,0
0.23,2.28,33.43,-23,-13,60,0
0.23,-1.15,33.43,-23,-13,59,0
0.23,6.16,33.43,-23,-13,60,0
0.23,0.3,33.43,-23,-14,60,0
0.23,-3.57,33.43,-23,-14,60,0
0.23,4.85,33.43,-23,-14,60,0
0.23,-0.41,33.43,-23,-13,60,0
0.23,-2.35,33.41,-23,-14,60,0
0.23,6.72,33.41,-23,-13,60,0
0.23,1.48,33.41,-23,-14,60,0
0.23,-1.69,33.41,-22,-14,60,0
0.23,1.08,33.39,-23,-14,59,0
0.23,-0.77,33.39,-23,-13,59,0
0.23,0.3,33.39,-23,-14,60,0
0.23,9.36,33.39,-23,-13,59,0
0.23,-2.82,33.37,-24,-13,59,0
0.23,-5.03,33.37,-24,-13,60,0
0.23,-0.03,33.37,-23,-13,59,0
0.23,2.99,33.37,-23,-13,60,0
0.23,0.79,33.37,-23,-13,60,0
0.23,0.29,33.37,-23,-14,61,0
0.23,2.04,33.37,-23,-14,60,0
0.23,-0.78,33.37,-25,-13,59,0
0.23,-3.57,33.37,-21,-8,64,0
0.23,-2.74,33.37,-25,-19,56,0
0.23,-2.79,33.37,-24,-24,50,0
0.23,-17.83,33.37,-21,-15,56,0
0.22,-23.32,33.37,-18,-11,51,0
0.21,-19.63,33.37,2,8,72,0
0.21,-142.37,33.37,-47,4,34,0
0.2,-132.62,33.37,-4,20,50,0
0.2,-161.3,33.16,-50,37,23,0
0.2,-120.93,33.16,-61,35,12,0
0.2,281.86,33.16,-47,36,21,0
0.2,227.86,33.16,-50,39,18,0
0.21,102.9,33.5,-50,40,18,0
0.21,52.25,33.5,-49,37,18,0
0.21,-35.29,33.5,-51,39,17,0
0.2,-27.86,33.5,-49,39,18,0
0.2,12.78,33.61,-49,37,20,0
0.21,-42.31,33.61,-50,38,18,0
0.2,55.11,33.61,-48,38,20,0
0.21,-0.07,33.61,-52,31,21,0
0.21,-70.83,33.65,-56,26,22,0
0.2,43.21,33.65,-56,23,25,0
0.2,-7.28,33.65,-55,25,24,0
0.2,9.09,33.65,-56,25,24,0
0.21,30.87,33.65,-56,26,25,0
0.2,-53.91,33.65,-60,21,27,0
0.2,64.37,33.65,-57,19,29,0
0.2,29.72,33.65,-60,19,28,0
0.2,-17.19,33.66,-58,15,28,0
0.21,-29.35,33.66,-61,18,31,0
0.2,-133.05,33.66,-55,18,35,0
0.21,-22.26,33.66,-52,17,33,0
0.2,142.3,33.66,-55,17,32,0
0.21,48.11,33.66,-56,18,35,0
0.21,-5.27,33.66,-55,17,35,0
0.21,-1.02,33.66,-54,16,34,0
0.21,15.69,33.65,-55,16,34,0
0.2,-60.89,33.65,-54,16,34,0
0.21,45.39,33.65,-56,16,33,0
0.21,19.76,33.65,-55,16,33,0
0.21,-53.25,33.65,-56,16,33,0
0.21,48.37,33.65,-55,16,34,0
0.21,-4.69,33.65,-54,15,33,0
0.21,30.84,33.65,-55,16,34,0
0.21,10.88,33.63,-55,16,33,0
0.21,-60.99,33.63,-55,15,33,0
0.21,35.19,33.63,-56,15,32,0
0.21,-9.56,33.63,-57,16,32,0
0.21,24.48,33.61,-55,16,33,0
0.21,15.88,33.61,-55,16,32,0
0.21,-47.36,33.61,-54,17,32,0
0.21,31.68,33.61,-56,17,33,0
0.21,5.59,33.59,-55,18,31,0
0.21,-50.12,33.59,-56,13,33,0
0.21,33.35,33.59,-57,14,33,0
0.21,-6.69,33.59,-56,14,33,0
0.21,2.9,33.57,-56,14,32,0
0.21,28.29,33.57,-57,14,32,0
0.21,-13.65,33.57,-56,14,32,0
0.21,35.01,33.57,-57,13,33,0
0.21,7.83,33.61,-56,14,32,0
0.21,-66.45,33.61,-56,14,32,0
0.21,33.44,33.61,-56,13,32,0
0.21,4.45,33.61,-56,14,32,0
0.21,-52.66,33.61,-56,15,33,0
0.21,25.88,33.61,-56,15,32,0
0.21,-15.52,33.61,-54,16,32,0
0.21,14.25,33.61,-58,17,29,0
0.21,10.16,33.57,-56,18,30,0
0.21,-46.92,33.57,-54,17,32,0
0.21,37.94,33.57,-56,20,29,0
0.21,16.44,33.57,-57,23,27,0
0.21,-83.22,33.57,-55,25,25,0
0.21,21,33.57,-57,27,20,0
0.21,-14.22,33.57,-59,27,15,0
0.21,-8.84,33.57,-56,31,14,0
0.21,5.06,33.57,-57,33,11,0
0.21,-26.88,33.57,-57,34,10,0
0.21,24.36,33.57,-57,33,11,0
0.21,16.96,33.57,-55,32,12,0
0.21,-35,33.55,-57,33,11,0
0.21,47.41,33.55,-54,34,12,0
0.21,4.55,33.55,-55,34,12,0
0.21,4.14,33.55,-55,34,13,0
0.21,18.01,33.55,-55,33,13,0
0.22,-33.79,33.55,-55,34,12,0
0.21,39.18,33.55,-54,33,13,0
0.21,4.87,33.55,-54,34,13,0
0.22,-62.96,33.55,-54,33,14,0
0.21,29.67,33.55,-54,34,14,0
0.22,-5.58,33.55,-54,34,14,0
0.21,-20.21,33.55,-54,33,14,0
0.21,18.82,33.55,-54,34,14,0
0.21,-24.55,33.55,-54,34,15,0
0.22,29.03,33.55,-54,34,14,0
0.22,14.41,33.55,-54,34,14,0
0.22,-37.93,33.53,-54,34,14,0
0.22,34.63,33.53,-55,34,14,0
0.22,13.08,33.53,-54,33,14,0
0.22,-48.99,33.53,-54,34,14,0
0.22,31.85,33.53,-55,34,14,0
0.21,1.45,33.53,-54,34,13,0
0.22,-49.55,33.53,-54,34,14,0
0.22,32.27,33.53,-54,34,14,0
0.22,-17.24,33.53,-55,34,14,0
0.22,5.24,33.53,-54,34,14,0
0.22,18.38,33.53,-55,34,14,0
0.22,-26.82,33.53,-54,34,14,0
0.22,35.29,33.53,-54,33,14,0
0.22,11.11,33.53,-54,34,14,0
0.22,-63.46,33.53,-54,31,14,0
0.22,33.55,33.53,-51,30,13,0
0.22,0.52,33.5,-57,26,12,0
0.22,-39.32,33.5,-55,27,16,0
0.22,25.12,33.5,-56,32,14,0
0.22,-33.49,33.5,-56,33,11,0
0.22,10.62,33.53,-55,33,12,0
0.22,34.29,33.53,-55,34,11,0
0.22,-46.18,33.53,-55,33,12,0
0.22,44.37,33.53,-55,33,12,0
0.22,28.49,33.5,-55,33,12,0
0.22,-38.24,33.5,-55,34,12,0
0.22,16.61,33.5,-55,33,13,0
0.22,-25.23,33.5,-55,34,13,0
0.22,29.93,33.5,-55,33,13,0
0.22,15.28,33.5,-55,34,13,0
0.22,-60.63,33.5,-55,33,12,0
0.22,35.39,33.5,-55,33,13,0
0.22,-0.76,33.5,-55,33,14,0
0.22,-38.91,33.5,-55,32,14,0
0.22,23.84,33.5,-55,34,13,0
0.22,-6.61,33.5,-55,33,13,0
0.22,36.49,33.49,-55,33,14,0
0.22,21.94,33.49,-55,34,14,0
0.22,-38.06,33.49,-55,33,13,0
0.22,28.09,33.49,-55,33,14,0
0.23,12.02,33.5,-54,33,14,0
0.22,-59.19,33.5,-55,34,14,0
0.22,31.96,33.5,-55,33,14,0
0.22,4.44,33.5,-54,33,14,0
0.22,-23.38,33.49,-54,34,14,0
0.22,26.44,33.49,-54,34,14,0
0.22,-17.13,33.49,-55,33,14,0
0.22,5.34,33.49,-55,33,14,0
0.23,26.63,33.5,-55,34,15,0
0.22,-24.08,33.5,-55,33,15,0
0.22,27.71,33.5,-55,33,14,0
0.22,11.69,33.5,-55,33,14,0
0.22,-44.59,33.47,-55,34,13,0
0.22,32.96,33.47,-55,34,14,0
0.22,5.55,33.47,-54,35,14,0
0.23,-54.68,33.47,-55,34,15,0
0.22,29.97,33.47,-54,33,15,0
0.22,-10.94,33.47,-55,31,17,0
0.22,13.65,33.47,-56,29,17,0
0.22,26.68,33.47,-55,27,21,0
0.22,-26.07,33.49,-54,28,23,0
0.22,20.2,33.49,-58,28,23,0
0.22,-8.43,33.49,-52,26,32,0
0.22,-69.37,33.49,-47,20,41,0
0.22,16.33,33.45,-44,19,45,0
0.23,-71.1,33.45,-44,11,48,0
0.23,-137.93,33.45,-39,14,48,0
0.23,126.22,33.45,-56,3,38,0
0.23,124.04,33.49,-49,8,43,0
0.23,192.23,33.49,-48,10,45,0
0.23,169.18,33.49,-48,11,43,0
0.23,-129.58,33.49,-52,2,37,0
0.23,-111.47,33.45,-60,8,30,0
0.23,-40.76,33.45,-56,4,30,0
0.23,55.32,33.45,-60,2,30,0
0.23,10.05,33.45,-62,5,28,0
0,-0.03,27.95,18,29,54,0
0.24,5.06,27.95,18,29,54,0
0.34,17.91,27.95,17,29,54,0
0.33,79.34,27.95,20,29,53,0
0.33,228.25,27.95,18,29,54,0
0.34,-486.5,27.95,18,29,55,0
0.34,-5.9,27.95,18,29,54,0
0.33,156.15,27.95,17,29,54,0
0.34,46.78,27.95,17,29,54,0
0.34,4.05,27.95,16,29,54,0
0.34,0.17,27.95,17,29,54,0
0.34,0.85,27.95,17,29,54,0
0.34,3.75,27.95,17,29,54,0
0.34,14.69,27.95,20,29,55,0
0.34,12.88,27.95,22,29,51,0
0.34,-14.66,27.95,34,33,42,0
0.33,16.53,27.93,34,34,43,0
0.33,71,27.93,32,33,43,0
0.33,106.97,27.93,30,32,44,0
0.33,-3.21,27.93,38,33,40,0
0.33,-269.74,27.93,34,32,41,0
0.33,-26.35,27.93,36,31,42,0
0.33,35.56,27.93,37,32,41,0
0.33,21.61,27.93,36,32,42,0
0.33,-15.96,27.91,38,33,40,0
0.33,-34.31,27.91,40,33,40,0
0.33,-13.06,27.91,37,33,42,0
0.33,22.06,27.91,36,32,42,0
0.33,-8.06,27.91,36,32,42,0
0.33,31.08,27.91,36,32,42,0
0.33,38.39,27.91,36,32,41,0
0.33,-53.65,27.91,37,33,44,0
0.33,2.75,27.89,36,33,35,0
0.34,8.89,27.89,36,32,41,0
0.33,5.04,27.89,39,34,39,0
0.33,0.92,27.89,36,32,41,0
0.33,4.5,27.87,32,32,45,0
0.34,12.6,27.87,30,32,45,0
0.33,-30.5,27.87,33,31,46,0
0.33,17.59,27.87,32,32,45,0
0.33,-33.39,27.87,36,32,43,0
0.33,10.42,27.87,34,32,43,0
0.34,-12.82,27.87,36,31,45,0
0.33,-0.21,27.87,33,31,45,0
0.33,37.85,27.87,34,32,44,0
0.34,-14.96,27.87,30,31,47,0
0.33,15.15,27.87,31,31,46,0
0.34,38.39,27.87,30,31,47,0
0.34,61.25,27.83,30,31,46,0
0.34,-3.87,27.83,30,30,47,0
0.34,-35.83,27.83,32,31,46,0
0.33,-47.58,27.83,30,31,46,0
0.34,-20.21,27.87,31,31,47,0
0.34,12.19,27.87,32,29,45,0
0.34,8.57,27.87,31,31,46,0
0.34,9.18,27.87,31,31,46,0
0.34,-9.16,27.83,31,32,47,0
0.34,-2.75,27.83,30,31,47,0
0.34,42.99,27.83,30,31,47,0
0.34,-22.49,27.83,30,31,47,0
0.34,12.23,27.83,30,30,47,0
0.34,7,27.83,29,31,48,0
0.33,-16.72,27.83,28,30,48,0
0.34,19.32,27.83,29,31,48,0
0.34,0.34,27.81,29,31,48,0
0.34,-7.56,27.81,29,31,47,0
0.34,2.92,27.81,29,31,48,0
0.34,-11.19,27.81,30,30,48,0
0.34,-32.69,27.77,29,30,48,0
0.34,20.27,27.77,29,30,48,0
0.34,15.58,27.77,29,30,48,0
0.34,-12.04,27.77,29,30,47,0
0.34,2.53,27.77,29,31,47,0
0.34,-5.1,27.77,31,31,46,0
0.34,-0.71,27.77,31,31,47,0
0.34,23.89,27.77,30,31,46,0
0.34,27.07,27.77,31,31,47,0
0.34,92.52,27.77,31,30,47,0
0.34,-30.77,27.77,31,31,47,0
0.34,-32.82,27.77,31,31,46,0
0.34,-9.04,27.77,31,31,46,0
0.34,10.26,27.77,32,31,46,0
0.34,0.72,27.77,32,31,46,0
0.33,4.72,27.77,31,31,46,0
0.34,24.05,27.75,32,31,45,0
0.34,-14.17,27.75,32,31,45,0
0.34,-4.43,27.75,32,31,45,0
0.34,12.55,27.75,32,31,46,0
0.34,-11.58,27.75,32,31,46,0
0.34,-1.4,27.75,32,31,45,0
0.34,-0.43,27.75,32,31,46,0
0.34,-11.9,27.75,32,31,46,0
0.34,-2.79,27.77,32,31,45,0
0.34,-11.67,27.77,32,31,45,0
0.34,-10.39,27.77,32,31,45,0
0.34,11.44,27.77,32,31,45,0
0.34,3.07,27.73,33,31,45,0
0.34,5.12,27.73,33,31,46,0
0.34,0.83,27.73,32,31,46,0
0.34,-19.96,27.73,32,31,46,0
0.34,-16.3,27.75,31,31,46,0
0.34,36.93,27.75,30,31,45,0
0.34,-20.13,27.75,30,32,47,0
0.34,-3.9,27.75,30,32,46,0
0.34,-27.73,27.73,32,32,46,0
0.34,9.14,27.73,31,31,46,0
0.34,34.02,27.73,31,32,45,0
0.34,16.07,27.73,31,31,46,0
0.34,19.99,27.71,31,31,47,0
0.34,1.99,27.71,30,31,46,0
0.34,-19.99,27.71,31,31,46,0
0.34,6.94,27.71,30,31,47,0
0.34,0.69,27.77,30,31,47,0
0.34,-5.97,27.77,30,31,47,0
0.34,17.28,27.77,30,31,47,0
0.34,4.21,27.77,30,31,47,0
0.34,-16.94,27.73,30,31,47,0
0.34,0.3,27.73,30,31,47,0
0.34,0.26,27.73,30,31,47,0
0.34,-7.49,27.73,30,31,47,0
0.34,6.54,27.71,30,31,47,0
0.34,-12.63,27.71,30,31,47,0
0.34,-6.52,27.71,30,31,47,0
0.34,7.76,27.71,30,31,47,0
0.34,0.41,27.71,30,31,47,0
0.34,4.51,27.71,30,31,47,0
0.34,0.05,27.71,30,31,47,0
0.34,-0.07,27.71,30,31,47,0
0.34,15.27,27.71,30,31,47,0
0.34,10.99,27.71,30,31,47,0
0.34,-10.29,27.71,31,31,47,0
0.34,13.97,27.71,30,30,47,0
0.34,-8.1,27.69,30,31,47,0
0.34,-15.78,27.69,31,31,47,0
0.34,11.43,27.69,30,31,47,0
0.34,-8.57,27.69,30,31,47,0
0.34,-3.96,27.69,30,31,47,0
0.34,14.39,27.69,30,31,47,0
0.34,-4.42,27.69,30,31,47,0
0.34,6.38,27.69,30,31,47,0
0.34,-0.43,27.69,30,31,47,0
0.34,-24.56,27.69,31,31,47,0
0.34,9.42,27.69,31,31,47,0
0.34,6.97,27.69,30,31,47,0
0.34,-5.28,27.67,30,31,46,0
0.34,20.11,27.67,30,31,46,0
0.34,-1.85,27.67,30,31,47,0
0.34,-6.81,27.67,31,31,46,0
0.34,2.37,27.65,32,32,44,0
0.34,-3.16,27.65,32,32,45,0
0.34,4.44,27.65,32,32,45,0
0.34,11.93,27.65,32,32,45,0
0.34,-39.31,27.69,32,32,45,0
0.34,-2.77,27.69,32,32,45,0
0.34,8.12,27.69,32,32,45,0
0.34,-9.14,27.69,32,32,45,0
0.34,10.8,27.67,32,32,45,0
0.34,4.03,27.67,32,32,45,0
0.34,-8.96,27.67,32,32,45,0
0.34,8.78,27.67,32,32,45,0
0.34,4.41,27.69,32,32,45,0
0.34,-14.73,27.69,32,32,45,0
0.34,8.63,27.69,32,32,45,0
0.34,-3.38,27.69,32,32,45,0
0.34,-8.43,27.63,32,32,45,0
0.34,4.19,27.63,32,32,45,0
0.34,1.21,27.63,32,32,45,0
0.34,-2.64,27.63,32,32,45,0
0.34,5.66,27.69,32,32,45,0
0.34,-24.66,27.69,32,32,45,0
0.34,21.27,27.69,34,32,45,0
0.34,-0.92,27.69,31,31,46,0
0.34,-23.79,27.67,29,32,46,0
0.34,14.32,27.67,26,33,49,0
0.34,20.21,27.67,11,29,57,0
0.34,64.97,27.67,17,31,55,0
0.34,119.86,27.65,20,31,52,0
0.34,-137.49,27.65,29,32,47,0
0.34,-40.83,27.65,6,29,54,0
0.34,8.09,27.65,27,37,44,0
0.34,-52.32,27.65,34,28,34,0
0.34,6.42,27.65,38,-13,46,0
0.34,63.76,27.65,51,-65,57,0
0.34,-63.3,27.65,2,-76,-2,0
0.34,-71.74,27.65,5,-41,6,0
0.34,-78.99,27.65,18,-40,6,0
0.34,-165.48,27.65,6,-57,16,0
0.34,278.15,27.65,4,-57,9,0
0.34,77.66,27.67,11,-81,5,0
0.34,-10.68,27.67,-4,-67,4,0
0.34,-57.85,27.67,22,-61,-1,0
0.34,25.59,27.67,31,-91,2,0
0.34,-12.76,27.67,-8,-55,25,0
0.34,-21.17,27.67,22,-74,15,0
0.34,34.77,27.67,10,-50,28,0
0.34,-63.51,27.67,29,-50,30,0
0.34,-17.77,27.67,12,-74,27,0
0.34,-29.16,27.67,0,-51,3,0
0.34,-61.18,27.67,11,-77,8,0
0.34,-26.85,27.67,9,-87,23,0
0.34,14.68,27.69,7,-74,14,0
0.34,-104.05,27.69,15,-74,33,0
0.34,88.55,27.69,20,-52,15,0
0.34,41.46,27.69,11,-76,38,0
0.34,97.91,27.69,6,-58,16,0
0.34,-40.34,27.69,-1,-72,12,0
0.35,-42.87,27.69,1,-76,19,0
0.34,-20.4,27.69,4,-33,53,0
0.34,23.92,27.69,26,-104,21,0
0.34,-73.58,27.69,6,-57,34,0
0.34,7.31,27.69,1,-58,31,0
0.34,79.56,27.69,14,-31,61,0
0.35,-34.7,27.65,14,-94,32,0
0.34,-126.24,27.65,7,-31,28,0
0.34,112.78,27.65,-3,-60,39,0
0.34,51.92,27.65,14,-57,41,0
0.35,-22.08,27.69,-15,-55,36,0
0.35,-76.87,27.69,12,-35,35,0
0.35,52.07,27.69,12,-51,34,0
0.35,23.13,27.69,-5,-62,56,0
0.35,-73.54,27.69,19,-9,55,0
0.35,20.3,27.69,16,-46,54,0
0.35,12.26,27.69,24,-53,27,0
0.35,43.3,27.69,14,-39,71,0
0.35,9.8,27.71,51,-38,71,0
0.35,-44.31,27.71,14,-48,51,0
0.35,-73.78,27.71,15,-44,22,0
0.35,65.65,27.71,5,-113,13,0
0.35,0.29,27.71,-2,-60,22,0
0.35,-71.33,27.71,19,-87,13,0
0.35,-135.19,27.71,15,-49,11,0
0.34,-30.35,27.71,-1,-56,16,0
0.35,148.66,27.71,9,-92,25,0
0.34,144.44,27.71,9,-58,-4,0
0.35,-41.42,27.71,24,-65,-21,0
0.34,-4.13,27.71,14,-66,13,0
0.35,26.74,27.71,26,-52,44,0
0.35,52.88,27.71,36,-30,38,0
0.35,-48.65,27.71,10,-49,30,0
0.35,17.16,27.71,6,-13,23,0
0,-0.03,31.03,72,11,28,1
0.09,5.06,31.03,66,-51,54,1
0.14,17.91,31.03,30,-18,44,1
0.14,79.34,31.03,-24,-77,12,1
0.15,228.25,31.03,9,-22,54,1
0.19,-486.42,31.03,2,-7,64,1
0.19,-6.01,31.03,6,7,72,1
0.19,154.76,31.03,39,2,69,1
0.18,32.66,31.13,79,24,36,1
0.17,-16.04,31.13,45,8,48,1
0.17,-29.38,31.13,23,8,55,1
0.16,-9.28,31.13,32,9,59,1
0.16,-5.46,31.11,26,8,60,1
0.16,2.31,31.11,25,9,59,1
0.15,8.32,31.11,31,12,55,1
0.15,18.72,31.11,21,7,60,1
0.14,15.08,31.05,19,8,61,1
0.15,-63.81,31.05,19,8,62,1
0.15,-60.33,31.05,19,9,59,1
0.14,-1.21,31.05,24,12,55,1
0.14,-74.34,31.11,27,14,52,1
0.14,209.16,31.11,29,12,57,1
0.14,11.51,31.11,50,7,57,1
0.14,-41.12,31.11,73,11,62,1
0.14,30.9,31.17,27,12,62,1
0.15,65.97,31.17,9,11,64,1
0.14,-105.74,31.17,13,6,59,1
0.14,40.38,31.17,4,8,66,1
0.14,-155.78,31.23,5,10,63,1
0.14,108.79,31.23,7,10,62,1
0.14,185.57,31.23,6,11,62,1
0.13,74.97,31.23,13,11,62,1
0.13,-38.17,31.05,8,10,65,1
0.13,-257.05,31.05,6,9,63,1
0.13,168.09,31.05,5,9,64,1
0.13,5.9,31.05,6,9,63,1
0.13,-102.95,30.95,6,8,64,1
0.13,-34.4,30.95,7,6,66,1
0.13,20.12,30.95,7,7,64,1
0.12,267.68,30.95,6,7,64,1
0.13,-40.2,31.25,6,7,64,1
0.13,-10.99,31.25,5,5,63,1
0.13,-89.37,31.25,5,6,64,1
0.13,-123.25,31.25,6,5,64,1
0.13,47.51,31.37,5,6,64,1
0.13,20.87,31.37,7,7,63,1
0.13,101.39,31.37,8,7,63,1
0.13,24.31,31.37,7,6,63,1
0.13,23.38,31.43,10,7,64,1
0.13,-28.01,31.43,6,7,64,1
0.13,161.04,31.43,5,6,64,1
0.13,22.71,31.43,5,7,63,1
0.13,-355.41,31.49,4,6,64,1
0.12,-180.21,31.49,2,7,64,1
0.12,212.71,31.49,1,8,63,1
0.12,117.33,31.49,0,8,64,1
0.12,107.04,31.51,0,6,64,1
0.12,-93.6,31.51,3,10,64,1
0.12,42.76,31.51,2,10,63,1
0.12,133.37,31.51,4,9,64,1
0.12,101.63,31.57,8,11,64,1
0.12,35.55,31.57,2,11,60,1
0.12,-160.06,31.57,6,11,63,1
0.12,-161.57,31.57,4,11,63,1
0.12,24.81,31.59,5,11,63,1
0.12,68.26,31.59,7,11,63,1
0.12,-115.76,31.59,6,11,62,1
0.12,-20.74,31.59,9,12,60,1
0.12,49.05,31.55,11,10,66,1
0.12,38.91,31.55,9,11,62,1
0.13,13.7,31.55,9,11,62,1
0.12,17.15,31.55,8,11,62,1
0.12,-41.92,31.53,7,11,62,1
0.12,10.74,31.53,8,11,63,1
0.12,4.74,31.53,10,10,62,1
0.12,-2.91,31.53,9,11,62,1
0.12,27.82,31.51,9,11,63,1
0.12,-6.97,31.51,8,12,63,1
0.12,-3.11,31.51,9,11,63,1
0.12,-66.68,31.51,9,12,63,1
0.12,23.12,31.49,10,13,62,1
0.12,-52.58,31.49,10,12,62,1
0.12,-22.71,31.49,17,14,64,1
0.12,-78.39,31.49,4,14,57,1
0.12,12.01,31.49,53,20,23,1
0.12,65.72,31.49,49,24,-30,1
0.12,-28.04,31.49,40,18,-41,1
0.12,-89.54,31.49,36,16,-59,1
0.12,167.35,31.47,28,14,-53,1
0.11,294.2,31.47,25,14,-55,1
0.1,-162.05,31.47,27,13,-55,1
0.1,-61.81,31.47,28,13,-58,1
0.1,90.75,31.57,30,13,-66,1
0.1,-84.86,31.57,12,17,-58,1
0.1,15.81,31.57,13,18,-64,1
0.1,36.63,31.57,5,19,-57,1
0.09,-19.34,31.59,5,18,-56,1
0.08,34.53,31.59,10,18,-61,1
0.08,-89.19,31.59,13,18,-58,1
0.09,193.33,31.59,15,19,-60,1
0.11,-109.43,31.63,13,16,-57,1
0.11,-101.5,31.63,13,20,-64,1
0.12,27.15,31.63,11,17,-57,1
0.13,70.94,31.63,10,18,-59,1
0.13,112.54,31.65,9,18,-59,1
0.13,-81.88,31.65,5,17,-61,1
0.14,-186.91,31.65,5,17,-63,1
0.14,-46.08,31.65,7,17,-60,1
0.14,12.48,31.69,6,17,-62,1
0.15,209.45,31.69,7,16,-61,1
0.15,88.73,31.69,8,18,-56,1
0.16,-13.48,31.69,9,18,-60,1
0.15,-20.82,31.71,8,18,-56,1
0.16,-18.95,31.71,11,17,-58,1
0.17,15.58,31.71,9,21,-63,1
0.17,208.27,31.71,10,20,-61,1
0.16,-239.54,31.71,10,21,-60,1
0.15,39.32,31.71,14,21,-63,1
0.15,29.36,31.71,71,25,-16,1
0.15,-227.11,31.71,30,33,41,1
0.15,129.58,31.71,42,32,31,1
0.15,237.54,31.71,32,20,61,1
0.15,132.09,31.71,20,20,53,1
0.15,-140.58,31.71,32,27,44,1
0.15,-64.42,31.69,40,25,47,1
0.15,47.69,31.69,30,20,53,1
0.15,67.35,31.69,23,17,55,1
0.15,37.94,31.69,15,11,60,1
0.15,-12.07,31.65,30,12,56,1
0.15,-101.36,31.65,32,17,55,1
0.15,66.27,31.65,20,16,57,1
0.15,155.44,31.65,29,17,57,1
0.15,-56.28,31.67,31,17,57,1
0.15,-72.65,31.67,16,17,57,1
0.15,-4.15,31.67,17,17,59,1
0.15,-67.1,31.67,10,16,58,1
0.15,26.16,31.69,24,17,59,1
0.15,14.12,31.69,27,16,54,1
0.15,-23.51,31.69,34,17,54,1
0.15,-3.9,31.69,25,18,57,1
0.15,12.92,31.69,31,15,51,1
0.16,-17.13,31.69,35,13,53,1
0.15,83.92,31.69,32,15,51,1
0.15,34.72,31.69,33,17,53,1
0.15,-118.66,31.69,37,17,52,1
0.15,14.02,31.69,31,16,52,1
0.15,-37.24,31.69,35,17,52,1
0.16,-15.41,31.69,37,16,49,1
0.15,26.2,31.71,36,16,49,1
0.15,-20.19,31.71,39,17,49,1
0.15,12.1,31.71,40,16,48,1
0.15,-6.54,31.71,39,16,48,1
0.15,-3.44,31.71,40,15,48,1
0.15,34.78,31.71,41,16,48,1
0.15,9.27,31.71,37,15,50,1
0.15,-4.04,31.71,41,16,49,1
0.15,5.76,31.73,40,16,48,1
0.16,0.85,31.73,39,16,48,1
0.15,33.66,31.73,39,16,48,1
0.16,-35.37,31.73,40,16,48,1
0.15,-9.76,31.73,42,16,48,1
0.15,10.82,31.73,39,15,45,1
0.16,9.97,31.73,50,17,37,1
0.15,5.1,31.73,46,17,38,1
0.15,1.71,31.71,50,16,39,1
0.15,21.99,31.71,42,17,47,1
0.15,-8.17,31.71,36,18,50,1
0.15,-4.98,31.71,36,18,50,1
0.16,-9.33,31.71,34,17,50,1
0.15,14.11,31.71,37,16,51,1
0.16,-9.58,31.71,37,17,51,1
0.15,0.68,31.71,32,17,52,1
0.15,-5.12,31.71,33,17,53,1
0.16,-7.7,31.71,34,17,52,1
0.15,11.59,31.71,34,16,53,1
0.15,21.18,31.71,31,16,53,1
0.15,-4.68,31.69,33,17,53,1
0.16,-19.34,31.69,32,16,52,1
0.15,4.08,31.69,35,16,52,1
0.16,14.87,31.69,35,16,51,1
0.16,-26.47,31.71,35,16,53,1
0.16,-13.23,31.71,34,16,53,1
0.16,3.75,31.71,34,16,53,1
0.16,4.79,31.71,34,16,52,1
0.16,-12.11,31.73,33,16,53,1
0.16,8.42,31.73,33,16,53,1
0.16,3.3,31.73,33,16,53,1
0.16,-1.25,31.73,32,16,53,1
0.16,13.46,31.73,30,16,55,1
0.16,5.71,31.73,28,15,55,1
0.16,-5.79,31.73,28,16,56,1
0.16,7.03,31.73,27,16,57,1
0.16,-9.47,31.75,26,16,57,1
0.16,-18.24,31.75,26,16,57,1
0.16,35.26,31.75,25,16,57,1
0.16,6.66,31.75,26,16,56,1
0.16,-14.42,31.69,26,16,57,1
0.16,14.78,31.69,26,16,57,1
0.16,5.06,31.69,25,15,56,1
0.16,-7.5,31.69,26,16,56,1
0.16,8.65,31.73,26,16,57,1
0.16,3.52,31.73,25,16,56,1
0.16,-9.91,31.73,27,16,57,1
0.16,0.39,31.73,26,16,57,1
0.16,-7.17,31.71,26,16,57,1
0.16,-6.61,31.71,24,16,56,1
0.16,11.35,31.71,30,16,55,1
0.16,1.49,31.71,19,15,60,1
0.16,-2.63,31.71,49,26,54,1
0.16,-6.31,31.71,29,36,37,1
0.16,-18.66,31.71,11,50,40,1
0.16,-39.97,31.71,-9,44,60,1
0.16,-25.94,31.69,21,56,59,1
0.16,-20.6,31.69,12,59,24,1
0.17,49.17,31.69,16,59,23,1
0.17,3.36,31.69,11,57,20,1
0.17,108.28,31.67,19,57,21,1
0.17,-53.48,31.67,20,59,21,1
0.17,35.71,31.67,13,58,27,1
0.17,15.09,31.67,7,57,6,1
0.17,-0.51,31.67,6,56,16,1
0.17,34.66,31.67,1,57,19,1
0.17,45.4,31.67,3,60,22,1
0.16,32.13,31.67,0,60,16,1
0.16,-30.83,31.65,4,61,13,1
0.16,4.4,31.65,2,61,12,1
0.16,-28.3,31.65,2,61,15,1
0.16,-48.88,31.65,3,61,16,1
0.16,12.15,31.63,2,61,14,1
0.16,-30.21,31.63,3,61,15,1
0.16,-18.43,31.63,3,61,16,1
0.16,14.07,31.63,3,61,15,1
0.16,9.7,31.65,3,61,15,1
0.16,-12.02,31.65,3,61,15,1
0.16,-4.12,31.65,3,61,15,1
0.16,7.64,31.65,3,61,15,1
0.16,-11.12,31.63,3,61,15,1
0.16,5.11,31.63,2,61,15,1
0.16,10.87,31.63,2,61,15,1
0.16,-9.66,31.63,3,61,15,1
0,-0.03,27.11,22,43,41,0
0.2,5.06,27.11,23,43,40,0
0.3,17.91,27.11,22,43,40,0
0.3,79.34,27.11,22,43,41,0
0.3,228.25,27.11,23,44,41,0
0.3,-486.5,27.11,22,43,41,0
0.3,-5.9,27.11,22,43,41,0
0.3,156.15,27.11,22,43,42,0
0.3,46.78,27.11,21,43,40,0
0.3,4.05,27.11,22,43,42,0
0.3,0.18,27.11,20,42,42,0
0.3,0.9,27.11,22,43,41,0
0.3,4,27.09,22,43,41,0
0.3,15.41,27.09,22,43,41,0
0.3,10.25,27.09,22,43,41,0
0.3,-14.03,27.09,21,43,41,0
0.3,13.49,27.09,22,43,41,0
0.3,50.54,27.09,22,43,42,0
0.3,-13.1,27.09,22,43,41,0
0.3,-100.26,27.09,22,43,41,0
0.3,19.23,27.09,21,43,41,0
0.3,8.59,27.09,22,43,42,0
0.3,26.01,27.09,21,43,42,0
0.3,16.23,27.09,22,43,42,0
0.3,-14.43,27.07,22,43,41,0
0.3,11.58,27.07,24,44,39,0
0.3,4.49,27.07,23,45,39,0
0.3,-13.62,27.07,24,44,41,0
0.3,9.02,27.07,21,43,40,0
0.3,5.57,27.07,22,43,40,0
0.3,-12.34,27.07,22,43,40,0
0.3,16.31,27.07,20,43,40,0
0.3,9.4,27.05,23,43,40,0
0.3,-30.58,27.05,24,43,40,0
0.3,9.02,27.05,23,44,40,0
0.3,18.39,27.05,23,43,41,0
0.3,-21.19,27.05,22,43,39,0
0.3,-7.99,27.05,22,43,40,0
0.3,3.07,27.05,23,44,39,0
0.31,13,27.05,24,44,40,0
0.3,15.48,27.03,22,43,40,0
0.3,0.56,27.03,21,43,41,0
0.3,-16.66,27.03,22,44,39,0
0.3,3.63,27.03,22,43,41,0
0.3,-8.21,27.03,22,43,40,0
0.3,-16.19,27.03,22,43,40,0
0.3,11.16,27.03,23,44,39,0
0.3,-4,27.03,21,43,41,0
0.3,-11.19,27.05,23,44,40,0
0.3,22.66,27.05,23,44,40,0
0.3,8.69,27.05,22,44,40,0
0.3,-9.78,27.05,22,43,39,0
0.3,7.22,27.03,22,44,40,0
0.3,0.06,27.03,23,43,38,0
0.3,-13.27,27.03,23,44,37,0
0.3,-9.29,27.03,23,45,40,0
0.3,-20.37,27.05,22,46,39,0
0.3,-13.18,27.05,23,44,39,0
0.3,28.7,27.05,31,46,33,0
0.3,-6.15,27.05,28,44,38,0
0.3,-33.87,27.03,25,43,39,0
0.3,-25.85,27.03,24,45,39,0
0.3,30.62,27.03,22,46,33,0
0.3,54.92,27.03,21,48,32,0
0.3,143.79,27.03,29,47,32,0
0.31,-45.32,27.03,33,47,32,0
0.31,-137.26,27.03,33,45,30,0
0.32,60.85,27.03,35,44,30,0
0.32,114.7,27.01,37,45,28,0
0.32,178.79,27.01,37,45,29,0
0.32,-112.13,27.01,35,44,28,0
0.31,4.42,27.01,31,43,27,0
0.32,-74.22,27.03,35,44,32,0
0.32,-35.1,27.03,32,47,27,0
0.32,-41.23,27.03,36,47,29,0
0.32,20.6,27.03,32,46,33,0
0.31,78.94,27.03,31,46,32,0
0.32,-45,27.03,30,45,34,0
0.31,-10.08,27.03,33,45,31,0
0.31,16.23,27.03,31,45,33,0
0.32,-83.32,27.05,33,44,35,0
0.32,-161.96,27.05,31,45,29,0
0.32,-77.68,27.05,38,44,30,0
0.31,-18.1,27.05,34,44,30,0
0.32,-43.48,27.05,34,45,31,0
0.32,-84.27,27.05,34,44,31,0
0.32,113.31,27.05,34,44,30,0
0.31,306.37,27.05,32,44,31,0
0.32,101.16,27.05,34,44,33,0
0.31,190.07,27.05,31,44,29,0
0.32,53.17,27.05,34,45,32,0
0.32,18.08,27.05,35,45,29,0
0.32,-144.02,27.07,35,45,29,0
0.32,-53.84,27.07,36,45,30,0
0.32,-152.55,27.07,35,45,30,0
0.32,48.36,27.07,35,45,29,0
0.32,-85.3,27.09,35,45,29,0
0.32,100.16,27.09,34,45,29,0
0.32,81.34,27.09,36,44,30,0
0.32,27.62,27.09,35,45,29,0
0.32,-93.54,27.07,36,45,29,0
0.32,27.29,27.07,34,45,29,0
0.32,17.53,27.07,35,44,29,0
0.32,-0.59,27.07,35,45,30,0
0.32,23.23,27.09,36,44,30,0
0.32,44.97,27.09,35,45,29,0
0.32,29.77,27.09,35,45,29,0
0.32,-68.8,27.09,35,45,30,0
0.32,-9.34,27.09,34,45,30,0
0.32,-12.27,27.09,35,45,30,0
0.32,-22.39,27.09,34,45,29,0
0.32,-2.85,27.09,34,45,29,0
0.32,11.48,27.11,35,44,30,0
0.32,3.69,27.11,35,44,29,0
0.32,19.02,27.11,35,45,29,0
0.32,-23.2,27.11,35,45,29,0
0.32,7.05,27.15,35,45,29,0
0.32,46.12,27.15,35,45,30,0
0.32,-9.58,27.15,35,45,30,0
0.32,-17.57,27.15,35,45,29,0
0.32,-14.43,27.13,35,45,30,0
0.32,-16.83,27.13,36,45,29,0
0.32,34.72,27.13,35,45,30,0
0.32,-9.51,27.13,35,45,30,0
0.32,-16.78,27.13,35,45,30,0
0.32,-16.04,27.13,35,44,29,0
0.32,22.19,27.13,38,45,30,0
0.32,26.88,27.13,36,45,29,0
0.32,15.35,27.11,39,45,27,0
0.32,29.02,27.11,40,44,22,0
0.32,-50.08,27.11,41,45,16,0
0.32,-12.23,27.11,43,43,19,0
0.32,93.29,27.13,44,46,7,0
0.31,5.96,27.13,44,46,11,0
0.31,-138.66,27.13,42,47,7,0
0.32,-107.23,27.13,45,46,7,0
0.32,-17.61,27.13,44,47,6,0
0.32,348.81,27.13,44,47,6,0
0.32,137.83,27.13,46,46,6,0
0.32,-28.35,27.13,43,47,5,0
0.31,-61.81,27.15,44,47,11,0
0.31,7.89,27.15,42,47,8,0
0.32,11.95,27.15,42,46,10,0
0.32,-28.42,27.15,43,46,11,0
0.32,-63.14,27.15,43,46,11,0
0.32,-90.36,27.15,43,46,11,0
0.32,-36.11,27.15,42,47,11,0
0.31,7.43,27.15,42,47,11,0
0.31,-23.43,27.13,43,46,12,0
0.31,-0.03,27.13,43,46,12,0
0.32,0.62,27.13,43,46,12,0
0.31,-41.12,27.13,43,47,10,0
0.32,95.84,27.15,42,46,12,0
0.32,25.2,27.15,43,46,11,0
0.32,-8.92,27.15,43,47,12,0
0.32,-10.39,27.15,43,46,15,0
0.31,-2.1,27.15,42,47,12,0
0.32,35.13,27.15,43,47,12,0
0.31,13.86,27.15,42,47,12,0
0.31,-35.12,27.15,43,47,12,0
0.31,23.15,27.15,42,47,12,0
0.31,51.97,27.15,43,47,12,0
0.32,-32.04,27.15,42,47,11,0
0.31,12.12,27.15,42,47,11,0
0.32,8.98,27.17,42,47,11,0
0.31,20.8,27.17,42,47,11,0
0.31,23.79,27.17,42,47,11,0
0.31,11.44,27.17,42,47,11,0
0.31,0.22,27.15,44,47,13,0
0.31,-4.05,27.15,43,48,9,0
0.31,-6.7,27.15,43,47,10,0
0.31,-17.95,27.15,43,47,9,0
0.31,2.62,27.15,42,47,10,0
0.31,45.25,27.15,43,47,10,0
0.31,-5.58,27.15,43,47,12,0
0.31,24.19,27.15,42,47,11,0
0.31,28.03,27.17,43,47,11,0
0.31,5.46,27.17,42,47,11,0
0.31,2.1,27.17,42,46,13,0
0.31,10.89,27.17,45,47,11,0
0.31,26.17,27.15,43,46,13,0
0.31,3.85,27.15,42,46,12,0
0.31,17.11,27.15,42,47,11,0
0.31,-32.11,27.15,42,46,12,0
0.31,-17.63,27.15,43,46,12,0
0.31,-49.96,27.15,43,46,13,0
0.31,20.78,27.15,42,47,12,0
0.31,32.16,27.15,42,47,11,0
0.31,-6.49,27.17,42,46,12,0
0.31,-9.94,27.17,42,46,12,0
0.31,12.72,27.17,45,46,17,0
0.31,12.08,27.17,45,46,19,0
0.31,24.4,27.17,38,45,21,0
0.31,25.94,27.17,36,46,23,0
0.31,-120.52,27.17,28,46,29,0
0.31,29.01,27.17,33,47,29,0
0.31,-18.47,27.17,33,49,32,0
0.31,76.6,27.17,32,53,24,0
0.31,94.16,27.17,29,53,13,0
0.3,-70.51,27.17,9,51,1,0
0.3,-82.7,27.15,15,53,26,0
0.3,-142.53,27.15,12,58,11,0
0.3,167.58,27.15,13,57,18,0
0.29,82.3,27.15,17,57,25,0
0.29,-289.06,27.15,15,56,27,0
0.29,39.85,27.15,15,57,25,0
0.29,-249.85,27.15,14,57,22,0
0.29,147.11,27.15,14,57,24,0
0.29,97.01,27.15,16,56,25,0
0.29,123.71,27.15,16,57,23,0
0.29,8.06,27.15,16,57,22,0
0.29,-7.93,27.15,17,57,24,0
0.29,-16.13,27.15,18,57,23,0
0.29,-49.25,27.15,20,57,23,0
0.29,-5,27.15,20,58,18,0
0.29,-15.36,27.15,18,58,19,0
0.29,10.74,27.15,18,59,18,0
0.29,21.3,27.15,15,59,16,0
0.29,-4.46,27.15,15,59,20,0
0.29,62.31,27.15,11,61,11,0
0.29,26.61,27.13,4,62,8,0
0.29,-37.29,27.13,13,61,14,0
0.29,21.17,27.13,15,60,15,0
0.29,13.72,27.13,13,58,10,0
0.29,-39.29,27.15,22,59,4,0
0.29,5.13,27.15,12,60,11,0
0.3,5.65,27.15,11,60,12,0
0.3,49.97,27.15,13,60,11,0
0.3,-86.94,27.15,17,60,10,0
0.3,-228.3,27.15,16,61,9,0
0.3,147.73,27.15,12,61,9,0
0.3,53.34,27.15,22,60,11,0
0.3,-169.36,27.15,20,60,16,0
0.3,-64.41,27.15,13,59,15,0
0.3,128.62,27.15,13,60,12,0
0.3,269.29,27.15,11,61,11,0
0.3,-176.63,27.15,18,61,11,0
0.3,129.12,27.15,14,59,14,0
0.3,-36.19,27.15,21,58,17,0
0.3,41.87,27.15,17,58,15,0
0,-0.03,31.63,-13,-18,62,0
0.04,5.06,31.63,-15,-18,62,0
0.08,17.91,31.63,-14,-17,62,0
0.08,79.34,31.63,-16,-17,60,0
0.08,228.25,31.63,3,-12,63,0
0.08,-486.47,31.63,9,-3,72,0
0.08,-5.02,31.63,13,-2,69,0
0.09,160.09,31.63,4,-8,66,0
0.09,63.4,31.61,1,-9,65,0
0.09,35.3,31.61,3,-9,65,0
0.08,-22.52,31.61,1,-10,64,0
0.09,10.78,31.61,0,-10,64,0
0.08,79.85,31.59,-1,-10,64,0
0.09,157.88,31.59,-1,-10,64,0
0.09,61.42,31.59,0,-10,64,0
0.08,3.83,31.59,-1,-10,65,0
0.09,-3.45,31.57,4,-11,63,0
0.08,-7.97,31.57,0,-11,64,0
0.09,-12.42,31.57,-1,-11,64,0
0.09,-27.72,31.57,-1,-11,64,0
0.09,-116.2,31.57,-2,-11,64,0
0.09,-391.69,31.57,-3,-11,63,0
0.08,-67.77,31.57,-2,-11,64,0
0.08,32.32,31.57,-1,-13,63,0
0.08,55.27,31.55,-2,-11,64,0
0.09,16.29,31.55,-2,-11,64,0
0.09,-10.43,31.55,-1,-11,64,0
0.09,19.7,31.55,-2,-11,64,0
0.08,-35.76,31.51,-3,-11,64,0
0.09,60.46,31.51,-3,-12,63,0
0.08,38.33,31.51,-3,-12,64,0
0.08,4.61,31.51,-3,-12,64,0
0.08,22.61,31.49,-3,-12,64,0
0.08,-10.86,31.49,-3,-12,63,0
0.08,26.54,31.49,-3,-12,64,0
0.08,20.89,31.49,-2,-12,64,0
0.08,-18.3,31.51,-3,-12,64,0
0.09,14.75,31.51,-2,-12,63,0
0.08,-15.46,31.51,-2,-11,64,0
0.08,-21.16,31.51,-3,-12,64,0
0.08,22.43,31.49,-3,-12,63,0
0.08,-22.65,31.49,-3,-12,64,0
0.09,26.16,31.49,-3,-12,64,0
0.08,32.36,31.49,-2,-12,64,0
0.08,-48.79,31.47,-2,-12,64,0
0.08,36.69,31.47,-3,-12,63,0
0.08,-9.83,31.47,-3,-12,64,0
0.09,9.23,31.47,-3,-12,64,0
0.08,10.65,31.47,-3,-12,65,0
0.08,-48.85,31.47,-2,-12,65,0
0.08,39.32,31.47,-3,-12,64,0
0.08,16.22,31.47,-3,-12,64,0
0.08,-4.09,31.45,-4,-12,64,0
0.08,-42.65,31.45,-3,-12,64,0
0.08,-1.65,31.45,-2,-12,63,0
0.08,32.35,31.45,-2,-12,64,0
0.08,20.3,31.43,2,-12,64,0
0.08,-8.6,31.43,5,-13,64,0
0.08,48.98,31.43,5,-13,64,0
0.08,31.11,31.43,5,-14,63,0
0.08,-13.8,31.41,2,-13,63,0
0.08,105.04,31.41,3,-13,63,0
0.08,-22.06,31.41,2,-13,63,0
0.08,-47.62,31.41,1,-13,63,0
0.08,-49.14,31.39,0,-13,63,0
0.08,-11.81,31.39,-1,-13,63,0
0.08,23.8,31.39,0,-12,64,0
0.08,-26.33,31.39,-1,-13,64,0
0.09,-63.92,31.39,0,-13,64,0
0.09,50.41,31.39,0,-13,64,0
0.08,21.63,31.39,-1,-13,63,0
0.08,-4.56,31.39,0,-13,64,0
0.09,23.34,31.35,0,-13,63,0
0.09,-13.63,31.35,0,-13,63,0
0.08,24.6,31.35,0,-13,64,0
0.08,7.1,31.35,0,-12,63,0
0.09,-48.15,31.33,-1,-12,64,0
0.08,36.18,31.33,-1,-12,64,0
0.08,-7.49,31.33,-1,-12,63,0
0.08,-27.26,31.33,-1,-12,63,0
0.08,21.53,31.35,-1,-12,64,0
0.09,14.7,31.35,-1,-12,63,0
0.09,8.7,31.35,-1,-12,64,0
0.08,0.59,31.35,0,-12,64,0
0.09,-19.43,31.33,0,-13,64,0
0.08,35.01,31.33,0,-12,64,0
0.08,16.32,31.33,0,-12,64,0
0.08,-50.18,31.33,0,-12,64,0
0.08,29.95,31.33,0,-13,64,0
0.09,-9.84,31.33,0,-13,63,0
0.09,-7.04,31.33,-1,-13,63,0
0.09,21.86,31.33,0,-12,63,0
0.09,-28.68,31.31,-1,-13,63,0
0.09,21.67,31.31,0,-12,64,0
0.09,5.58,31.31,0,-13,64,0
0.09,-37.88,31.31,0,-12,64,0
0.09,53.72,31.29,0,-12,64,0
0.09,19.58,31.29,4,-11,65,0
0.09,-51.61,31.29,6,-12,65,0
0.09,17.82,31.29,-1,-15,67,0
0.08,-6.81,31.31,-6,-15,63,0
0.09,27.99,31.31,-8,-17,66,0
0.09,-133.47,31.31,-11,-16,60,0
0.09,-264.8,31.31,1,-17,58,0
0.09,167.77,31.27,-4,-19,64,0
0.09,71.07,31.27,-4,-19,62,0
0.09,-124.77,31.27,-4,-19,64,0
0.09,-74.28,31.27,-5,-19,63,0
0.09,261.12,31.27,-5,-21,62,0
0.09,113.23,31.27,-6,-20,62,0
0.09,18.93,31.27,-5,-21,60,0
0.09,-1.77,31.27,-6,-21,62,0
0.09,-12.17,31.23,-5,-21,62,0
0.09,-4.88,31.23,-5,-22,61,0
0.09,-14.09,31.23,-6,-22,61,0
0.09,0.53,31.23,-9,-20,62,0
0.09,2.03,31.25,-11,-21,61,0
0.09,-12.75,31.25,-11,-21,60,0
0.09,-5.83,31.25,-12,-22,61,0
0.09,-1.61,31.25,-12,-21,61,0
0.09,-10.73,31.25,-10,-22,61,0
0.09,4.67,31.25,-11,-22,61,0
0.09,-7.86,31.25,-10,-22,61,0
0.09,-6.18,31.25,-11,-21,61,0
0.09,1.93,31.25,-10,-22,60,0
0.09,-5.32,31.25,-11,-21,61,0
0.09,7.44,31.25,-11,-22,61,0
0.09,-4.87,31.25,-11,-21,61,0
0.09,-13.55,31.25,-10,-22,60,0
0.09,2.1,31.25,-11,-22,61,0
0.09,-2.62,31.25,-11,-22,60,0
0.09,-4.47,31.25,-11,-22,60,0
0.09,2.77,31.25,-11,-22,61,0
0.09,-3.69,31.25,-11,-21,60,0
0.09,0.22,31.25,-11,-21,61,0
0.09,0.63,31.25,-10,-21,61,0
0.09,-10.15,31.25,-11,-22,60,0
0.09,2.31,31.25,-11,-22,60,0
0.09,-1.44,31.25,-11,-22,61,0
0.09,-5.7,31.25,-11,-22,61,0
0.09,1.79,31.21,-11,-22,60,0
0.09,-4.16,31.21,-11,-22,60,0
0.09,4.28,31.21,-12,-22,61,0
0.09,0.02,31.21,-11,-22,61,0
0.09,-4.76,31.23,-11,-22,60,0
0.09,5.86,31.23,-12,-22,61,0
0.09,-2.02,31.23,-12,-22,60,0
0.09,-8.92,31.23,-11,-22,60,0
0.09,3.61,31.21,-11,-22,60,0
0.09,-0.75,31.21,-10,-21,62,0
0.09,-7.91,31.21,-11,-22,62,0
0.09,4.02,31.21,-19,-20,69,0
0.09,0.19,31.23,-18,-23,53,0
0.09,-4.9,31.23,-28,-11,71,0
0.09,-42.58,31.23,-35,-8,60,0
0.09,-64.17,31.23,-35,-5,58,0
0.09,-73.97,31.23,-31,-6,56,0
0.09,115.08,31.23,-31,-5,58,0
0.09,52.14,31.23,-29,-6,58,0
0.09,36.35,31.23,-30,-6,59,0
0.09,57.83,31.23,-28,-5,59,0
0.09,-0.96,31.23,-31,-5,59,0
0.09,-4.99,31.23,-29,-5,58,0
0.09,-42.46,31.23,-29,-6,58,0
0.09,10.72,31.25,-22,-7,59,0
0.09,30.34,31.25,-23,-5,62,0
0.09,0.32,31.25,-27,-4,60,0
0.09,27.52,31.25,-26,-6,59,0
0.09,19.02,31.25,-26,-6,60,0
0.09,-13.66,31.25,-26,-5,59,0
0.09,-25.62,31.25,-26,-5,60,0
0.09,-18.98,31.25,-25,-6,60,0
0.09,0.11,31.25,-25,-5,61,0
0.09,17.02,31.25,-26,-5,60,0
0.09,-16.09,31.25,-26,-6,60,0
0.09,12.6,31.25,-26,-5,60,0
0.09,16.5,31.25,-26,-5,60,0
0.09,-31.06,31.25,-26,-5,60,0
0.09,8.13,31.25,-28,-4,59,0
0.09,3.71,31.25,-27,-6,60,0
0.09,-12.8,31.27,-26,-6,60,0
0.09,-7.68,31.27,-29,-6,57,0
0.09,-3.07,31.27,-24,-6,59,0
0.09,41.68,31.27,-28,-6,58,0
0.09,-9.97,31.25,-27,-7,59,0
0.09,-2.61,31.25,-28,-6,59,0
0.09,7.97,31.25,-29,-5,60,0
0.09,-60.25,31.25,-29,-6,60,0
0.09,-1.97,31.27,-26,-6,60,0
0.09,10.72,31.27,-26,-5,60,0
0.09,26.46,31.27,-27,-4,60,0
0.09,39.12,31.27,-24,-4,60,0
0.09,-109.36,31.27,-18,-4,61,0
0.09,7.67,31.27,-30,-4,60,0
0.09,39.07,31.27,-28,-3,60,0
0.09,38.97,31.27,-21,-5,58,0
0.09,-4.95,31.27,-21,-5,60,0
0.09,-109.84,31.27,-25,-5,60,0
0.09,-2.53,31.27,-27,-5,60,0
0.1,33.56,31.27,-26,-6,60,0
0.09,-30.47,31.25,-29,-5,59,0
0.09,-17.71,31.25,-29,-6,59,0
0.1,26.18,31.25,-28,-6,59,0
0.09,8.63,31.25,-27,-6,58,0
0.09,-24.53,31.25,-30,-5,58,0
0.1,25.22,31.25,-26,-6,60,0
0.09,8.23,31.25,-23,-8,60,0
0.1,-6.25,31.25,-33,-4,60,0
0.09,21.02,31.25,-30,-7,57,0
0.09,24.09,31.25,-31,-6,59,0
0.1,19.07,31.25,-26,-6,59,0
0.09,-49.15,31.25,-24,-5,62,0
0.1,19.84,31.25,-23,-7,60,0
0.1,33.18,31.25,-26,-3,61,0
0.09,49.77,31.25,-31,-5,61,0
0.1,-3.09,31.25,-31,-6,59,0
0.09,-2.23,31.25,-37,-7,57,0
0.1,-30.34,31.25,-40,-8,53,0
0.09,-7.87,31.25,-47,-9,49,0
0.09,24.72,31.25,-49,-10,47,0
0.1,-0.9,31.23,-50,-12,44,0
0.09,22.08,31.23,-50,-13,41,0
0.1,-8.42,31.23,-50,-12,40,0
0.1,-40.05,31.23,-55,-12,38,0
0.1,-32.56,31.23,-53,-12,39,0
0.1,53.33,31.23,-53,-11,38,0
0.09,14.22,31.23,-54,-11,38,0
0.1,-14.97,31.23,-53,-11,39,0
0.1,-23.58,31.23,-53,-11,40,0
0.1,24.11,31.23,-52,-11,39,0
0.1,27.64,31.23,-52,-11,40,0
0.1,-20.29,31.23,-53,-11,40,0
0.1,9.36,31.23,-52,-11,40,0
0.1,2.72,31.23,-52,-11,40,0
0.1,2.15,31.23,-53,-11,39,0
0.1,10.63,31.23,-53,-11,40,0
0.1,-4.98,31.23,-52,-11,40,0
0.1,16.1,31.23,-53,-11,39,0
0.1,11.91,31.23,-53,-11,39,0
0.1,-20.9,31.23,-53,-11,38,0
0,-0.03,34.84,59,-28,3,0
0.08,5.06,34.84,60,-28,1,0
0.13,17.91,34.84,60,-27,-3,0
0.13,79.34,34.84,60,-26,-1,0
0.13,228.25,34.84,59,-27,-1,0
0.13,-486.5,34.84,61,-26,-1,0
0.13,-5.63,34.84,60,-26,-2,0
0.13,157.71,34.84,61,-27,-1,0
0.13,54.14,34.81,60,-27,-1,0
0.13,29.96,34.81,60,-27,-1,0
0.13,-5.59,34.81,60,-27,-1,0
0.13,-4.75,34.81,60,-27,-1,0
0.13,34.4,34.81,60,-27,-1,0
0.13,112.85,34.81,61,-27,-1,0
0.13,114.85,34.81,60,-27,-1,0
0.13,4.53,34.81,60,-27,0,0
0.13,-127.17,34.81,60,-27,0,0
0.13,-365.04,34.81,60,-27,0,0
0.13,-23.29,34.81,59,-27,0,0
0.13,48.45,34.81,60,-27,0,0
0.13,34.2,34.79,61,-27,0,0
0.13,14.09,34.79,60,-27,1,0
0.13,13.94,34.79,60,-27,1,0
0.13,18.38,34.79,60,-27,1,0
0.13,-1.93,34.75,60,-27,1,0
0.13,-22.61,34.75,60,-27,1,0
0.13,-6.46,34.75,59,-28,1,0
0.14,3.47,34.75,60,-27,1,0
0.13,12.06,34.75,60,-27,0,0
0.13,5.62,34.75,59,-28,0,0
0.13,-14.46,34.75,59,-27,0,0
0.13,-11.51,34.75,60,-27,0,0
0.14,-6.11,34.73,60,-27,0,0
0.13,8.2,34.73,60,-27,0,0
0.13,19.54,34.73,60,-27,0,0
0.13,-6.53,34.73,59,-27,1,0
0.14,-11.61,34.75,60,-27,0,0
0.14,-8.67,34.75,60,-27,0,0
0.14,0.58,34.75,60,-27,1,0
0.13,-1.21,34.75,60,-26,1,0
0.13,6.91,34.71,60,-26,1,0
0.13,-5.05,34.71,60,-27,1,0
0.14,-29.26,34.71,60,-27,1,0
0.13,-17.8,34.71,60,-26,1,0
0.13,12.56,34.68,61,-26,1,0
0.14,15.42,34.68,59,-26,1,0
0.14,5.69,34.68,61,-26,1,0
0.14,-3.16,34.68,60,-26,1,0
0.14,5.96,34.71,60,-27,0,0
0.13,5.06,34.71,63,-27,0,0
0.14,-17.3,34.71,59,-27,4,0
0.13,-9.69,34.71,59,-29,3,0
0.14,-7.17,34.68,58,-30,4,0
0.13,-30.23,34.68,58,-29,5,0
0.14,-36.05,34.68,61,-27,4,0
0.14,-18.3,34.68,59,-28,4,0
0.14,44.08,34.66,60,-28,4,0
0.14,-18.5,34.66,59,-27,4,0
0.13,2.13,34.66,59,-27,4,0
0.14,41.2,34.66,59,-28,4,0
0.14,21.25,34.65,60,-27,5,0
0.14,11.09,34.65,59,-27,4,0
0.14,-15.93,34.65,60,-28,4,0
0.14,-5.21,34.65,60,-27,4,0
0.14,-2.84,34.65,60,-27,4,0
0.14,-0.56,34.65,59,-27,5,0
0.14,6.27,34.65,59,-27,5,0
0.14,-12.93,34.65,60,-27,5,0
0.14,-9.52,34.65,60,-27,5,0
0.14,24.14,34.65,60,-27,5,0
0.14,-2.86,34.65,60,-27,5,0
0.14,1.38,34.65,59,-27,5,0
0.14,-12.5,34.63,59,-27,5,0
0.14,2.72,34.63,59,-27,5,0
0.14,2.78,34.63,59,-28,5,0
0.14,-3.25,34.63,59,-28,5,0
0.14,-5.1,34.63,59,-28,5,0
0.14,0.12,34.63,59,-28,4,0
0.14,-7.63,34.63,59,-28,4,0
0.14,-18.66,34.63,59,-30,5,0
0.14,4.26,34.63,59,-29,6,0
0.14,-8.57,34.63,58,-28,6,0
0.14,-35.4,34.63,59,-28,6,0
0.14,-72.76,34.63,59,-29,7,0
0.14,-50.68,34.63,59,-29,7,0
0.14,251.83,34.63,58,-31,8,0
0.14,-39.68,34.63,57,-30,8,0
0.14,-353.08,34.63,57,-30,10,0
0.13,184.47,34.59,58,-30,9,0
0.14,308.1,34.59,58,-28,10,0
0.14,-456.85,34.59,58,-28,10,0
0.14,-84.2,34.59,58,-28,10,0
0.14,300.7,34.49,58,-27,10,0
0.14,1220.42,34.49,59,-27,10,0
0.14,-350.96,34.49,58,-28,9,0
0.14,-461.64,34.49,59,-28,9,0
0.14,-86.09,34.63,59,-27,9,0
0.14,111.53,34.63,58,-28,10,0
0.14,76.92,34.63,58,-28,10,0
0.14,22.23,34.63,59,-28,10,0
0.13,32.61,34.63,59,-27,10,0
0.14,-280.32,34.63,58,-27,10,0
0.14,-151.65,34.63,59,-28,10,0
0.14,-21.12,34.63,59,-28,11,0
0.14,669.06,34.57,58,-27,11,0
0.14,308.08,34.57,58,-27,12,0
0.14,-100.67,34.57,58,-27,12,0
0.14,-356.11,34.57,59,-27,12,0
0.14,-107.12,34.57,58,-26,12,0
0.14,-175.34,34.57,56,-27,11,0
0.14,71.99,34.57,59,-26,11,0
0.14,-47.78,34.57,60,-26,11,0
0.14,-219.97,34.57,59,-26,11,0
0.14,354.71,34.57,60,-25,11,0
0.14,459.43,34.57,60,-25,10,0
0.14,138.18,34.57,60,-27,9,0
0.14,-53.35,34.57,59,-27,9,0
0.14,-6.32,34.57,60,-26,8,0
0.14,-180.25,34.57,60,-26,8,0
0.14,-26.1,34.57,60,-26,8,0
0.14,-0.55,34.55,59,-27,8,0
0.14,-12.66,34.55,59,-27,8,0
0.14,-122.5,34.55,59,-26,9,0
0.14,30.28,34.55,60,-27,8,0
0.14,-129.06,34.5,59,-27,8,0
0.14,-89.7,34.5,60,-27,7,0
0.14,0.4,34.5,59,-27,8,0
0.14,35.24,34.5,59,-27,8,0
0.14,94.04,34.45,59,-27,8,0
0.14,-98.98,34.45,59,-27,8,0
0.15,-45.71,34.45,59,-27,7,0
0.15,-18.19,34.45,59,-28,8,0
0.15,-1.87,34.37,60,-27,8,0
0.14,-1.46,34.37,59,-27,7,0
0.15,4.35,34.37,60,-27,7,0
0.15,-1.59,34.37,59,-27,7,0
0.15,3.61,34.33,59,-27,7,0
0.15,14.94,34.33,59,-28,7,0
0.15,20.52,34.33,59,-29,6,0
0.15,15.87,34.33,59,-28,7,0
0.15,-15.04,34.31,59,-28,7,0
0.15,5.95,34.31,59,-29,7,0
0.15,50.64,34.31,60,-28,7,0
0.15,117.85,34.31,59,-28,7,0
0.15,-115.99,34.27,58,-29,7,0
0.15,-41.28,34.27,58,-29,8,0
0.15,37.86,34.27,58,-29,7,0
0.15,12.81,34.27,58,-29,7,0
0.15,9.71,34.25,58,-29,7,0
0.15,6.29,34.25,58,-30,7,0
0.15,-1.73,34.25,58,-30,7,0
0.15,8.33,34.25,58,-31,6,0
0.15,17.45,34.23,58,-31,7,0
0.15,39.22,34.23,57,-31,7,0
0.15,108.54,34.23,57,-31,9,0
0.15,-70.61,34.23,57,-32,9,0
0.15,-10.4,34.21,56,-32,9,0
0.15,24.81,34.21,58,-31,9,0
0.15,35.79,34.21,58,-30,8,0
0.15,111.07,34.21,57,-32,5,0
0.15,-89.78,34.21,57,-28,-1,0
0.15,-22.26,34.21,59,-27,-2,0
0.15,-58.09,34.21,60,-29,-3,0
0.15,-391.44,34.21,60,-28,-2,0
0.15,145.1,34.16,59,-27,-2,0
0.15,395.71,34.16,59,-25,-1,0
0.15,118.94,34.16,59,-27,0,0
0.15,-40.05,34.16,59,-27,1,0
0.15,26.88,34.33,60,-27,1,0
0.15,94.59,34.33,60,-27,2,0
0.15,97.23,34.33,60,-27,3,0
0.15,11.55,34.33,59,-27,2,0
0.15,-20.23,34.43,60,-27,3,0
0.15,1.3,34.43,60,-26,2,0
0.15,9.74,34.43,60,-27,3,0
0.15,33.84,34.43,60,-26,2,0
0.15,7.64,34.43,61,-26,3,0
0.15,-3.65,34.43,60,-27,2,0
0.15,3.53,34.43,60,-28,2,0
0.15,6.41,34.43,61,-27,2,0
0.15,18.57,34.41,60,-27,2,0
0.15,-2.43,34.41,60,-27,2,0
0.15,10.63,34.41,60,-26,1,0
0.15,-3.04,34.41,61,-26,2,0
0.15,-4.3,34.41,60,-26,1,0
0.15,-4.82,34.41,60,-26,2,0
0.15,-1.62,34.41,60,-26,2,0
0.15,-5.44,34.41,61,-26,2,0
0.15,1.03,34.39,60,-26,2,0
0.15,-6.09,34.39,60,-27,2,0
0.15,2.16,34.39,60,-26,2,0
0.15,-0.99,34.39,60,-26,3,0
0.15,-1.62,34.37,59,-27,2,0
0.15,-8.79,34.37,60,-26,2,0
0.15,1.44,34.37,60,-27,2,0
0.15,11.56,34.37,60,-27,2,0
0.15,-17.44,34.34,60,-27,3,0
0.15,-14.21,34.34,61,-27,3,0
0.15,-9.39,34.34,59,-27,3,0
0.15,-12.47,34.34,59,-27,3,0
0.15,-10.25,34.34,60,-27,2,0
0.15,14.66,34.34,60,-26,1,0
0.15,19.13,34.34,62,-30,1,0
0.15,11.82,34.34,60,-28,1,0
0.15,4.15,34.34,59,-29,2,0
0.15,19.28,34.34,57,-28,1,0
0.15,12.4,34.34,60,-31,0,0
0.15,-51.4,34.34,56,-32,0,0
0.15,-86.17,34.34,59,-30,3,0
0.15,-23.73,34.34,58,-29,3,0
0.15,88.74,34.34,59,-29,4,0
0.15,-24.5,34.34,59,-29,5,0
0.15,-55.14,34.31,58,-30,4,0
0.15,50.71,34.31,59,-29,5,0
0.15,33.43,34.31,58,-29,5,0
0.15,-0.51,34.31,58,-28,5,0
0.15,-2.63,34.33,59,-28,5,0
0.15,0.39,34.33,59,-28,4,0
0.15,13.94,34.33,59,-28,4,0
0.15,3.94,34.33,60,-29,5,0
0.15,-10.16,34.29,58,-29,5,0
0.15,-6.46,34.29,59,-28,6,0
0.15,34.71,34.29,58,-30,8,0
0.15,-45.08,34.29,59,-27,11,0
0.15,-56.57,34.29,56,-31,9,0
0.15,36.32,34.29,57,-30,5,0
0.15,48.88,34.29,60,-29,4,0
0.15,72.33,34.29,60,-27,4,0
0.15,112.92,34.31,59,-32,4,0
0.15,0.74,34.31,59,-29,3,0
0.15,-101.88,34.31,60,-28,3,0
0.15,-43.64,34.31,59,-29,3,0
0.15,-12.42,34.29,58,-30,3,0
0.15,-49.73,34.29,59,-29,3,0
0.15,4.73,34.29,59,-29,2,0
0.15,-14.99,34.29,59,-30,3,0
0.15,-18.48,34.31,58,-30,3,0
0.15,-8.44,34.31,59,-29,3,0
0.16,19.85,34.31,59,-28,3,0
0.15,-5.23,34.31,59,-28,4,0
0,-0.03,36.31,48,-30,33,1
0.07,5.06,36.31,48,-30,33,1
0.13,17.91,36.31,48,-30,33,1
0.12,79.34,36.31,48,-30,33,1
0.12,228.25,36.31,48,-30,33,1
0.12,-486.5,36.31,49,-30,33,1
0.12,-5.9,36.31,48,-30,33,1
0.12,156.15,36.31,48,-30,33,1
0.12,46.78,36.27,48,-30,33,1
0.12,4.05,36.27,48,-30,33,1
0.12,0.18,36.27,48,-30,33,1
0.12,0.91,36.27,48,-30,33,1
0.12,4.01,36.27,48,-30,33,1
0.12,15.5,36.27,48,-30,33,1
0.12,10.58,36.27,48,-30,33,1
0.13,-12.75,36.27,48,-30,33,1
0.12,19.05,36.25,48,-30,33,1
0.12,65.77,36.25,48,-30,33,1
0.13,48.37,36.25,48,-30,33,1
0.12,-271.07,36.25,48,-30,33,1
0.13,-2.07,36.25,48,-30,33,1
0.12,22.89,36.25,48,-30,33,1
0.13,-1.28,36.25,48,-30,33,1
0.13,27.55,36.25,48,-30,33,1
0.13,8.8,36.25,48,-30,33,1
0.13,-15.97,36.25,48,-30,33,1
0.12,15.15,36.25,48,-30,33,1
0.13,15.08,36.25,48,-30,33,1
0.13,1.26,36.23,48,-30,33,1
0.13,-9.5,36.23,48,-30,33,1
0.13,13.01,36.23,48,-30,33,1
0.12,3.21,36.23,48,-30,33,1
0.13,-29.8,36.23,48,-30,33,1
0.13,15.09,36.23,48,-30,33,1
0.13,5.71,36.23,48,-30,33,1
0.13,-8.41,36.23,48,-30,34,1
0.13,8.41,36.23,48,-30,33,1
0.13,11.44,36.23,48,-30,33,1
0.13,1.73,36.23,48,-30,33,1
0.13,-23.39,36.23,48,-30,33,1
0.13,9.08,36.18,48,-30,34,1
0.13,0.89,36.18,48,-30,33,1
0.13,-12.99,36.18,48,-30,34,1
0.13,9.42,36.18,48,-30,34,1
0.13,11.03,36.21,48,-30,33,1
0.13,-1.59,36.21,48,-30,34,1
0.13,-12.14,36.21,47,-30,34,1
0.13,10.56,36.21,47,-30,33,1
0.13,4.28,36.18,48,-30,34,1
0.12,-10.41,36.18,47,-30,33,1
0.12,4.79,36.18,48,-30,34,1
0.13,-1.87,36.18,48,-30,34,1
0.13,-13.32,36.18,48,-30,33,1
0.13,9.31,36.18,48,-30,33,1
0.13,8.58,36.18,48,-29,34,1
0.13,-9.06,36.18,48,-30,34,1
0.13,-11.73,36.18,48,-30,33,1
0.13,13.42,36.18,48,-30,33,1
0.13,2.43,36.18,48,-30,34,1
0.13,-23.49,36.18,47,-30,34,1
0.13,16.48,36.15,48,-30,34,1
0.13,1,36.15,48,-30,33,1
0.13,-15.18,36.15,47,-30,34,1
0.13,12.76,36.15,47,-30,34,1
0.13,9.8,36.16,48,-29,35,1
0.13,-13.66,36.16,47,-28,35,1
0.13,2.95,36.16,48,-26,38,1
0.13,18.9,36.16,45,-22,42,1
0.13,11.8,36.15,40,-20,48,1
0.13,18.34,36.15,50,-17,57,1
0.13,19.02,36.15,40,-3,43,1
0.13,2.51,36.15,36,-6,46,1
0.13,-62.37,36.13,39,-1,46,1
0.13,17.56,36.13,45,4,47,1
0.13,84.9,36.13,43,8,45,1
0.13,48.18,36.13,42,8,39,1
0.12,-124.13,36.15,52,-14,57,1
0.12,35.45,36.15,40,-6,52,1
0.12,149.81,36.15,14,-12,57,1
0.12,-291.19,36.15,14,-3,55,1
0.12,-433.05,36.09,24,6,55,1
0.12,83.9,36.09,9,7,40,1
0.13,330.62,36.09,36,-3,54,1
0.12,277.88,36.09,45,-1,51,1
0.12,-162.24,36.13,53,-3,46,1
0.12,-14.42,36.13,53,0,36,1
0.12,-33.37,36.13,60,-1,34,1
0.12,-120.02,36.13,59,1,28,1
0.12,14.44,36.09,63,3,20,1
0.12,33.51,36.09,63,4,20,1
0.12,-4.13,36.09,62,4,18,1
0.12,-58.27,36.09,64,5,17,1
0.12,48.9,36.11,62,6,17,1
0.12,23.27,36.11,64,6,18,1
0.12,-27.86,36.11,65,6,20,1
0.12,32.46,36.11,64,6,18,1
0.12,-5.72,36.11,63,6,18,1
0.12,-25.35,36.11,63,6,18,1
0.12,-26.03,36.11,63,6,17,1
0.12,35.86,36.11,63,6,18,1
0.12,-2.11,36.09,63,6,18,1
0.12,18.79,36.09,64,7,18,1
0.12,-2.44,36.09,63,6,18,1
0.12,-32.47,36.09,63,7,18,1
0.12,12.17,36.09,63,7,18,1
0.12,27.27,36.09,63,7,18,1
0.12,59.52,36.09,63,7,18,1
0.12,-51.36,36.09,63,7,18,1
0.12,45.96,36.07,63,7,18,1
0.12,24.6,36.07,63,7,18,1
0.12,11.73,36.07,64,7,18,1
0.12,-0.27,36.07,63,8,19,1
0.12,14.65,36.05,62,7,18,1
0.12,-28.11,36.05,62,7,18,1
0.12,-23,36.05,63,7,18,1
0.12,37.84,36.05,63,7,18,1
0.12,7.13,36.07,63,8,18,1
0.12,19.57,36.07,63,8,18,1
0.12,-3.44,36.07,63,8,16,1
0.12,-19.14,36.07,62,7,20,1
0.12,7.96,36.03,62,7,20,1
0.12,8.59,36.03,63,8,19,1
0.12,17.57,36.03,63,8,19,1
0.12,1.03,36.03,63,7,19,1
0.12,4.38,36.03,62,7,19,1
0.12,47.44,36.03,63,7,19,1
0.12,-22.79,36.03,62,7,18,1
0.12,23.91,36.03,63,7,19,1
0.13,24.45,35.99,62,7,18,1
0.12,-38.46,35.99,62,7,18,1
0.13,-119.04,35.99,63,7,18,1
0.12,43.2,35.99,63,7,18,1
0.13,-8.09,35.99,63,7,18,1
0.12,13.83,35.99,63,7,18,1
0.13,26.84,35.99,63,7,19,1
0.12,-5.12,35.99,63,7,19,1
0.12,-18.43,35.97,63,6,19,1
0.13,17.11,35.97,63,6,20,1
0.12,11.23,35.97,62,7,20,1
0.12,-40.29,35.97,63,7,19,1
0.12,-8.88,35.95,62,7,18,1
0.12,6.18,35.95,63,8,18,1
0.13,-10.54,35.95,62,7,19,1
0.12,-10.29,35.95,63,8,19,1
0.13,28.16,35.97,63,7,18,1
0.13,0.8,35.97,63,7,18,1
0.13,-9.38,35.97,63,8,17,1
0.12,10.57,35.97,63,7,18,1
0.13,-9.3,35.91,63,8,18,1
0.13,-23.58,35.91,62,7,19,1
0.12,-30.9,35.91,63,7,18,1
0.13,15.13,35.91,62,7,18,1
0.13,-7.64,35.89,62,7,18,1
0.12,10.63,35.89,63,7,19,1
0.13,13.17,35.89,63,8,18,1
0.12,-19.1,35.89,62,7,18,1
0.13,-4.73,35.89,63,8,17,1
0.13,2.74,35.89,63,8,18,1
0.13,-30.73,35.89,63,8,18,1
0.13,-9.26,35.89,63,8,18,1
0.12,22.73,35.87,63,9,16,1
0.13,6.85,35.87,62,8,16,1
0.13,15.12,35.87,63,9,17,1
0.13,-0.99,35.87,62,8,17,1
0.13,-6.26,35.89,63,8,17,1
0.13,29.13,35.89,63,8,18,1
0.13,4.87,35.89,63,8,18,1
0.13,4.35,35.89,63,8,17,1
0.13,-25.15,35.87,62,8,18,1
0.13,3.24,35.87,63,8,14,1
0.13,10.25,35.87,64,9,16,1
0.13,-2.1,35.87,67,8,21,1
0.13,20,35.84,45,15,28,1
0.13,-30.84,35.84,53,10,43,1
0.13,-39.88,35.84,52,7,39,1
0.13,-82.47,35.84,55,8,35,1
0.13,135.5,35.84,56,7,32,1
0.13,7.57,35.84,56,7,31,1
0.13,-62.95,35.84,58,6,33,1
0.13,-14.21,35.84,58,7,31,1
0.13,29.08,35.81,56,7,33,1
0.13,89.16,35.81,57,8,31,1
0.13,3.55,35.81,57,7,31,1
0.13,-19.48,35.81,57,7,32,1
0.13,-72.95,35.81,57,7,31,1
0.13,0.54,35.81,57,7,31,1
0.13,-15.54,35.81,57,7,32,1
0.13,-68.28,35.81,57,7,31,1
0.13,30.19,35.81,56,7,31,1
0.13,-13.54,35.81,56,6,29,1
0.13,16.01,35.81,58,7,31,1
0.13,42.8,35.81,57,6,28,1
0.13,-17.7,35.81,58,7,28,1
0.13,-27.25,35.81,58,7,29,1
0.13,85.37,35.81,57,5,30,1
0.13,69.8,35.81,58,6,30,1
0.13,-15,35.79,57,7,30,1
0.13,2.58,35.79,57,7,30,1
0.13,-5.13,35.79,58,6,31,1
0.13,53.2,35.79,57,6,30,1
0.13,12.46,35.75,57,7,30,1
0.13,-24.23,35.75,58,6,31,1
0.13,71.16,35.75,57,6,31,1
0.13,31.76,35.75,58,6,30,1
0.13,-26.62,35.75,57,6,30,1
0.13,3.16,35.75,57,6,30,1
0.13,21.07,35.75,58,6,31,1
0.13,8.38,35.75,57,6,30,1
0.13,7.2,35.75,57,6,31,1
0.13,17.71,35.75,58,6,31,1
0.13,-13.55,35.75,57,6,31,1
0.13,-11.78,35.75,57,6,31,1
0.13,5.19,35.73,57,6,31,1
0.13,-0.07,35.73,57,6,30,1
0.13,-8.96,35.73,57,6,30,1
0.13,9.17,35.73,57,6,31,1
0.13,9.57,35.75,57,6,30,1
0.13,-1.99,35.75,57,6,30,1
0.13,5.67,35.75,57,6,31,1
0.13,11.5,35.75,58,6,31,1
0.13,-23.38,35.71,57,6,31,1
0.13,0.65,35.71,57,6,30,1
0.13,6.89,35.71,57,6,30,1
0.13,-21.9,35.71,57,6,31,1
0.13,-18.88,35.68,58,6,30,1
0.13,25.61,35.68,57,5,30,1
0.13,0.36,35.68,58,5,31,1
0.13,13.14,35.68,57,5,31,1
0.13,10.19,35.71,57,6,31,1
0.13,-26.73,35.71,57,6,31,1
0.13,-5.34,35.71,58,5,31,1
0.13,15.55,35.71,57,5,31,1
0.13,-22.05,35.68,57,5,31,1
0.13,-8.1,35.68,57,6,30,1
0.13,10.29,35.68,57,5,30,1
0.13,7.97,35.68,57,6,30,1
0.13,14.57,35.71,57,5,30,1
0.13,9.05,35.71,56,6,29,1
0.13,-13.15,35.71,57,6,32,1
0.13,-1.48,35.71,58,7,31,1
0,-0.03,30.15,41,1,50,0
0.2,5.06,30.15,41,1,50,0
0.29,17.91,30.15,42,2,51,0
0.28,79.34,30.15,40,2,47,0
0.28,228.25,30.15,44,-3,51,0
0.28,-486.47,30.15,44,1,48,0
0.28,-4.99,30.15,45,2,48,0
0.29,160.14,30.15,46,3,43,0
0.29,63.72,30.13,53,3,45,0
0.28,35.23,30.13,50,1,44,0
0.28,-24.66,30.13,51,1,42,0
0.28,17.18,30.13,50,0,44,0
0.28,74.24,30.13,53,1,45,0
0.28,152.32,30.13,55,0,46,0
0.28,63.49,30.13,48,-4,43,0
0.29,10.84,30.13,47,-4,46,0
0.28,-40.53,30.11,50,-4,41,0
0.28,-168.43,30.11,20,-6,52,0
0.28,-381.87,30.11,21,-5,63,0
0.28,-230.89,30.11,11,-7,61,0
0.28,217.35,30.07,6,-2,62,0
0.29,220.86,30.07,14,4,48,0
0.28,-36.2,30.07,19,-2,58,0
0.29,-260.52,30.07,22,11,60,0
0.29,56.82,30.11,31,3,54,0
0.31,98.52,30.11,43,0,52,0
0.31,-126.98,30.11,32,-14,64,0
0.31,169.04,30.11,12,-14,65,0
0.3,62.23,30.05,8,-9,63,0
0.3,-215.53,30.05,17,1,55,0
0.29,-253.19,30.05,26,-4,61,0
0.29,85.82,30.05,19,0,71,0
0.3,168.01,30.09,14,-12,54,0
0.29,225.27,30.09,34,-13,50,0
0.29,-409.12,30.09,16,-14,46,0
0.29,27.07,30.09,31,-11,54,0
0.29,235,30.07,39,-11,59,0
0.29,193.02,30.07,30,-10,45,0
0.29,51.11,30.07,35,-22,66,0
0.29,151.87,30.07,38,-10,62,0
0.28,-264.82,30.05,-10,6,47,0
0.28,282.06,30.05,10,-8,72,0
0.29,-111.06,30.05,7,-18,70,0
0.29,19.38,30.05,12,-14,59,0
0.29,181.98,30.09,7,-12,64,0
0.29,-191.35,30.09,6,-9,55,0
0.29,-299.49,30.09,9,-10,55,0
0.29,244.77,30.09,4,-11,60,0
0.29,227.89,30.09,10,-9,68,0
0.29,-147.23,30.09,13,-11,68,0
0.29,-99.94,30.09,11,-12,62,0
0.29,98.01,30.09,12,-9,66,0
0.29,-28.53,30.09,9,-8,64,0
0.29,-83.68,30.09,10,-12,66,0
0.29,24.22,30.09,9,-9,64,0
0.29,5.73,30.09,4,-10,63,0
0.29,-100.27,30.11,4,-11,63,0
0.29,20.02,30.11,6,-11,63,0
0.29,38.94,30.11,5,-11,62,0
0.29,-0.9,30.11,6,-12,63,0
0.29,-16.26,30.09,4,-11,62,0
0.29,-19.37,30.09,7,-12,61,0
0.29,-7.6,30.09,8,-14,62,0
0.29,-13.66,30.09,7,-14,63,0
0.29,40.34,30.09,5,-14,64,0
0.29,7.09,30.09,7,-12,63,0
0.29,-29.66,30.09,7,-13,62,0
0.29,-58.95,30.09,8,-13,63,0
0.29,-26.34,30.11,8,-13,62,0
0.29,53.19,30.11,9,-14,64,0
0.29,47.29,30.11,9,-13,61,0
0.29,24.09,30.11,8,-14,62,0
0.29,-2.43,30.11,9,-14,62,0
0.29,30.45,30.11,9,-14,62,0
0.29,-108.36,30.11,11,-13,61,0
0.3,-13.42,30.11,11,-14,63,0
0.29,44.79,30.11,10,-15,62,0
0.29,-13.71,30.11,11,-14,65,0
0.3,16.24,30.11,11,-14,62,0
0.29,-6.91,30.11,11,-14,62,0
0.3,27.94,30.11,12,-14,63,0
0.29,39.47,30.11,12,-14,62,0
0.3,-38.52,30.11,11,-13,62,0
0.29,-41.8,30.11,12,-13,62,0
0.3,-13.47,30.15,9,-14,59,0
0.29,24.79,30.15,11,-14,63,0
0.3,20.69,30.15,12,-14,62,0
0.29,-33.94,30.15,12,-14,62,0
0.29,-48.65,30.13,13,-14,62,0
0.3,28.05,30.13,13,-14,62,0
0.3,21.91,30.13,14,-14,62,0
0.3,-14.78,30.13,14,-14,62,0
0.3,31.89,30.13,14,-13,62,0
0.3,9.21,30.13,13,-13,62,0
0.3,3.76,30.13,14,-14,62,0
0.3,-5.54,30.13,14,-14,62,0
0.3,-8.68,30.15,14,-14,62,0
0.3,9.61,30.15,14,-14,62,0
0.3,-13.91,30.15,14,-14,62,0
0.3,-20.69,30.15,14,-14,62,0
0.3,5.88,30.15,13,-14,62,0
0.3,-10.79,30.15,14,-14,62,0
0.3,-8,30.15,14,-14,62,0
0.3,-3.53,30.15,14,-14,62,0
0.3,5.19,30.15,14,-14,62,0
0.3,5.52,30.15,14,-14,62,0
0.3,9.35,30.15,14,-14,61,0
0.3,-10.63,30.15,14,-14,62,0
0.3,-7.5,30.17,14,-14,61,0
0.3,19.68,30.17,14,-14,62,0
0.3,-12.03,30.17,14,-14,62,0
0.3,-7.96,30.17,13,-14,61,0
0.3,6.98,30.15,13,-14,62,0
0.3,-7.74,30.15,13,-14,62,0
0.3,-6.05,30.15,13,-14,62,0
0.3,-1.11,30.15,13,-14,62,0
0.3,-20.4,30.17,12,-14,62,0
0.3,18.38,30.17,12,-13,61,0
0.3,7.55,30.17,11,-13,62,0
0.3,-4.39,30.17,12,-16,64,0
0.3,11.27,30.17,8,-11,60,0
0.3,26.01,30.17,10,-13,62,0
0.3,-11.72,30.17,6,-15,63,0
0.3,22.87,30.17,7,-14,62,0
0.3,47.28,30.17,7,-13,63,0
0.3,-80.58,30.17,7,-13,63,0
0.3,-116.73,30.17,6,-13,63,0
0.3,82.56,30.17,7,-14,63,0
0.3,80.27,30.19,6,-13,63,0
0.3,-54.54,30.19,6,-13,62,0
0.3,-36.41,30.19,6,-14,63,0
0.3,18.08,30.19,6,-14,63,0
0.3,8.1,30.21,7,-14,63,0
0.3,-6.49,30.21,6,-14,63,0
0.3,14.7,30.21,6,-14,63,0
0.3,6.19,30.21,6,-14,63,0
0.3,10.91,30.21,6,-14,63,0
0.3,8.94,30.21,6,-14,63,0
0.3,-0.54,30.21,6,-14,63,0
0.3,9.16,30.21,6,-14,63,0
0.3,12.09,30.21,6,-14,63,0
0.3,-6.75,30.21,6,-14,63,0
0.3,0.96,30.21,6,-14,63,0
0.3,8.56,30.21,6,-14,63,0
0.3,-3.58,30.23,7,-14,63,0
0.3,4.63,30.23,6,-14,63,0
0.3,5.6,30.23,6,-14,63,0
0.3,0.7,30.23,6,-14,63,0
0.3,-12.41,30.25,6,-14,63,0
0.3,6.97,30.25,6,-14,63,0
0.3,0.63,30.25,7,-14,63,0
0.3,5.82,30.25,6,-14,63,0
0.3,1.91,30.27,6,-14,63,0
0.31,-5.56,30.27,6,-14,63,0
0.3,16.93,30.27,6,-14,63,0
0.3,2.67,30.27,6,-14,62,0
0.3,-29.69,30.31,6,-14,63,0
0.3,-25.6,30.31,6,-14,63,0
0.3,-31.36,30.31,6,-14,63,0
0.3,45.73,30.31,6,-14,63,0
0.3,15.63,30.33,6,-14,63,0
0.3,-5.67,30.33,7,-14,62,0
0.31,-8.01,30.33,6,-14,63,0
0.3,-1.43,30.33,6,-15,63,0
0.3,-6.44,30.33,6,-14,63,0
0.3,0.28,30.33,6,-15,63,0
0.3,1.88,30.33,6,-15,63,0
0.3,-7.98,30.33,6,-14,63,0
0.3,0.33,30.33,6,-14,62,0
0.3,1.81,30.33,6,-14,63,0
0.3,-7.39,30.33,6,-14,63,0
0.3,2.75,30.33,6,-14,63,0
0.3,3.63,30.33,6,-14,63,0
0.3,-3.32,30.33,6,-14,62,0
0.3,2.39,30.33,6,-14,63,0
0.3,4.17,30.33,6,-14,63,0
0.31,-5.67,30.35,6,-14,62,0
0.3,2.2,30.35,6,-14,63,0
0.31,6,30.35,6,-14,63,0
0.3,-5.2,30.35,5,-16,64,0
0.3,-0.16,30.37,5,-15,64,0
0.31,4.59,30.37,6,-13,62,0
0.3,-2.29,30.37,6,-15,63,0
0.31,-6.57,30.37,5,-15,63,0
0.3,17.99,30.37,6,-15,63,0
0.31,8,30.37,5,-15,62,0
0.3,-21.76,30.37,6,-14,62,0
0.3,13.81,30.37,6,-14,62,0
0.31,1.69,30.37,6,-14,63,0
0.3,-4.81,30.37,5,-13,62,0
0.3,1.46,30.37,8,-13,62,0
0.3,7.8,30.37,6,-14,61,0
0.31,-17.65,30.41,5,-14,62,0
0.3,-0.28,30.41,6,-16,62,0
0.31,-3.24,30.41,6,-18,65,0
0.3,-13.22,30.41,5,-15,63,0
0.31,7.74,30.41,5,-15,63,0
0.3,3.73,30.41,5,-15,63,0
0.31,-12.68,30.41,5,-15,63,0
0.31,-15.34,30.41,5,-15,63,0
0.31,15.34,30.41,5,-15,63,0
0.3,2.8,30.41,4,-15,63,0
0.3,7.32,30.41,5,-14,63,0
0.3,-5.81,30.41,5,-15,63,0
0.3,-0.56,30.43,5,-15,63,0
0.31,12.57,30.43,4,-15,63,0
0.31,-0.3,30.43,5,-15,63,0
0.31,1.64,30.43,5,-14,63,0
0.31,1.62,30.43,5,-15,63,0
0.31,-12.35,30.43,5,-15,63,0
0.31,-1.38,30.43,5,-15,63,0
0.31,-1.18,30.43,5,-14,63,0
0.31,-12.77,30.41,5,-14,63,0
0.31,-1.29,30.41,5,-14,62,0
0.31,-0.49,30.41,5,-15,63,0
0.31,-2.83,30.41,5,-15,63,0
0.31,6.33,30.43,4,-15,63,0
0.31,-2.83,30.43,4,-15,63,0
0.31,-2.18,30.43,4,-15,63,0
0.31,1.14,30.43,4,-16,65,0
0.31,-2.77,30.43,3,-15,63,0
0.31,-4.5,30.43,4,-14,63,0
0.31,0.01,30.43,4,-15,63,0
0.31,-7.28,30.43,4,-15,63,0
0.31,18.03,30.45,3,-15,63,0
0.31,6.52,30.45,4,-15,63,0
0.31,-2.55,30.45,4,-14,63,0
0.31,-2.91,30.45,4,-15,63,0
0.31,-1.37,30.45,5,-14,63,0
0.31,-5.23,30.45,4,-15,64,0
0.31,-3.99,30.45,4,-14,63,0
0.31,-0.02,30.45,3,-15,63,0
0.31,-12.93,30.45,3,-14,62,0
0.31,8.27,30.45,3,-14,61,0
0.31,4.91,30.45,4,-12,61,0
0.31,10.05,30.45,5,-14,62,0
0.31,-3.57,30.45,5,-14,62,0
0.31,-4.34,30.45,4,-15,63,0
0.31,-22.45,30.45,4,-15,63,0
0.31,-18.89,30.45,4,-14,63,0
0,-0.03,24.89,28,53,22,0
0.12,5.06,24.89,28,53,22,0
0.17,17.91,24.89,28,52,23,0
0.17,79.34,24.89,28,52,23,0
0.18,228.25,24.89,28,53,22,0
0.18,-486.5,24.89,28,53,23,0
0.18,-5.9,24.89,28,52,23,0
0.18,156.15,24.89,26,54,21,0
0.18,46.78,24.87,23,55,21,0
0.18,4.05,24.87,24,55,22,0
0.18,0.21,24.87,23,55,20,0
0.18,0.96,24.87,24,55,22,0
0.18,4.33,24.89,25,55,23,0
0.18,16.33,24.89,23,54,23,0
0.18,7.02,24.89,23,55,23,0
0.18,-11.45,24.89,23,56,21,0
0.18,18.36,24.89,22,55,20,0
0.18,65.36,24.89,22,55,21,0
0.18,0.87,24.89,24,56,22,0
0.18,-183.66,24.89,23,55,22,0
0.18,11.69,24.87,22,56,19,0
0.18,40.43,24.87,23,55,22,0
0.18,17.68,24.87,22,55,21,0
0.18,1.36,24.87,23,55,22,0
0.18,7.98,24.89,23,55,22,0
0.18,-0.56,24.89,22,55,21,0
0.18,-3.62,24.89,22,55,21,0
0.18,13.18,24.89,22,56,21,0
0.18,2.61,24.89,22,56,22,0
0.18,-11.18,24.89,23,56,21,0
0.18,4.74,24.89,23,55,21,0
0.18,4.04,24.89,23,55,21,0
0.18,-11.68,24.89,23,55,21,0
0.18,5.17,24.89,23,55,22,0
0.18,9.37,24.89,22,55,22,0
0.18,5.75,24.89,23,55,21,0
0.18,20.35,24.89,23,55,22,0
0.17,-2.21,24.89,23,55,22,0
0.18,-24.99,24.89,23,55,24,0
0.18,-31.51,24.89,23,55,23,0
0.18,-68.14,24.89,22,55,21,0
0.18,-4.27,24.89,23,55,23,0
0.18,121.41,24.89,23,55,22,0
0.18,63.15,24.89,22,55,22,0
0.18,-22.1,24.89,23,55,21,0
0.17,13.86,24.89,23,55,21,0
0.18,7.25,24.89,23,55,21,0
0.18,12.65,24.89,23,56,20,0
0.18,-31.06,24.89,22,56,21,0
0.18,-50.35,24.89,22,56,21,0
0.18,-8.18,24.89,22,56,20,0
0.18,-2.29,24.89,22,56,21,0
0.18,7.94,24.87,21,56,19,0
0.18,7.79,24.87,21,56,20,0
0.18,-2.34,24.87,22,56,20,0
0.18,6.3,24.87,22,55,20,0
0.18,-5.33,24.89,21,56,20,0
0.17,-7.99,24.89,22,56,21,0
0.18,7.75,24.89,23,55,21,0
0.17,7.17,24.89,22,55,19,0
0.18,-8.12,24.83,22,55,21,0
0.17,11.34,24.83,23,56,20,0
0.17,6.19,24.83,22,55,21,0
0.17,-9.75,24.83,23,56,20,0
0.17,7.53,24.83,22,56,20,0
0.17,5.55,24.83,22,56,20,0
0.18,-9.55,24.83,21,56,20,0
0.17,3.97,24.83,21,56,20,0
0.18,4.23,24.83,21,56,20,0
0.17,-6.05,24.83,21,56,20,0
0.18,6.01,24.83,21,56,20,0
0.17,4.13,24.83,21,57,20,0
0.17,-11.9,24.83,21,56,20,0
0.17,5.71,24.83,20,56,20,0
0.17,2.42,24.83,21,56,20,0
0.18,-10.52,24.83,20,56,20,0
0.17,6.05,24.83,22,57,21,0
0.17,-1.55,24.83,21,57,19,0
0.17,-12.8,24.83,20,56,20,0
0.17,10.94,24.83,21,57,20,0
0.17,10.7,24.83,21,57,20,0
0.17,-10.97,24.83,21,56,20,0
0.17,3.86,24.83,21,56,20,0
0.17,3.43,24.83,21,56,19,0
0.17,-7.88,24.83,21,56,20,0
0.17,1.17,24.83,20,56,20,0
0.17,4.36,24.83,20,57,19,0
0.17,-5.98,24.83,21,56,20,0
0.17,1.16,24.83,21,57,19,0
0.17,4.97,24.83,21,57,20,0
0.17,-0.99,24.83,20,56,19,0
0.17,-3,24.83,21,57,19,0
0.17,5.93,24.83,21,56,20,0
0.17,0.89,24.83,20,56,19,0
0.17,-6.53,24.83,21,57,20,0
0.17,7.94,24.83,21,56,20,0
0.17,2.59,24.83,21,56,20,0
0.17,-11.19,24.83,20,56,20,0
0.17,6.18,24.83,21,56,20,0
0.17,3.67,24.83,20,57,20,0
0.17,-8.62,24.81,21,57,20,0
0.17,1.42,24.81,21,57,20,0
0.17,0.49,24.81,21,56,20,0
0.17,-8,24.81,20,56,20,0
0.17,2.54,24.79,21,57,20,0
0.17,0.49,24.79,20,56,19,0
0.17,-5.51,24.79,21,56,20,0
0.17,6.91,24.79,21,57,21,0
0.17,10.1,24.81,20,56,20,0
0.17,3.31,24.81,20,57,19,0
0.17,0.14,24.81,21,57,22,0
0.17,-13.85,24.81,20,57,20,0
0.17,-14.71,24.79,20,56,20,0
0.17,-2.83,24.79,20,57,20,0
0.17,-9.68,24.79,20,56,20,0
0.17,-7.81,24.79,20,57,20,0
0.17,9.49,24.81,20,57,20,0
0.17,6.22,24.81,20,56,20,0
0.17,-3.59,24.81,20,57,20,0
0.17,3.57,24.81,20,56,21,0
0.17,-0.09,24.81,20,57,24,0
0.17,-6.39,24.81,17,56,18,0
0.17,-3.15,24.81,25,57,19,0
0.17,-5.62,24.81,23,57,16,0
0.17,-5.16,24.79,22,59,5,0
0.17,-12.94,24.79,22,53,19,0
0.17,44.07,24.79,20,55,14,0
0.17,39,24.79,20,56,20,0
0.17,22.49,24.77,23,56,26,0
0.17,157.31,24.77,21,55,23,0
0.17,-278.18,24.77,20,55,22,0
0.17,33.87,24.77,20,55,23,0
0.17,108.48,24.79,22,55,24,0
0.17,29.96,24.79,20,55,23,0
0.17,-40.77,24.79,22,55,23,0
0.17,-162.01,24.79,23,54,24,0
0.17,24.54,24.79,24,54,23,0
0.17,71.9,24.79,23,53,19,0
0.17,-42.88,24.79,27,55,24,0
0.17,-11.8,24.79,24,55,22,0
0.17,84,24.77,23,55,23,0
0.17,-5.32,24.77,22,54,23,0
0.17,-78.69,24.77,23,55,22,0
0.17,-41.11,24.77,23,55,23,0
0.17,8.7,24.77,22,55,22,0
0.17,26.12,24.77,22,55,23,0
0.17,42.6,24.77,23,55,23,0
0.17,9.04,24.77,23,55,23,0
0.17,35.63,24.77,21,55,21,0
0.17,-3.82,24.77,22,55,22,0
0.17,-9.19,24.77,22,56,22,0
0.17,-14.17,24.77,22,55,22,0
0.17,-16.64,24.75,22,55,21,0
0.17,-10.4,24.75,21,55,20,0
0.17,-3.19,24.75,22,55,22,0
0.17,5.95,24.75,22,55,21,0
0.17,13.41,24.77,23,55,22,0
0.17,-1.87,24.77,22,55,21,0
0.17,-16.8,24.77,22,55,22,0
0.17,-2.14,24.77,22,56,21,0
0.17,-11.48,24.73,22,55,21,0
0.17,-14.33,24.73,22,56,21,0
0.17,-16.76,24.73,22,56,21,0
0.17,-31.62,24.73,23,55,21,0
0.17,-33.21,24.73,22,56,19,0
0.17,32.22,24.73,23,56,21,0
0.17,55.55,24.73,23,55,19,0
0.17,61.53,24.73,23,56,20,0
0.17,59.7,24.75,23,56,19,0
0.17,30.43,24.75,23,56,19,0
0.17,-31.61,24.75,23,55,20,0
0.18,-17.33,24.75,25,59,14,0
0.17,8.44,24.73,28,54,15,0
0.17,-17.14,24.73,35,54,18,0
0.17,-43.96,24.73,14,53,13,0
0.17,-139.87,24.73,19,52,26,0
0.17,-75.83,24.71,29,51,26,0
0.17,137.81,24.71,28,52,24,0
0.17,-53.42,24.71,28,52,22,0
0.17,131.27,24.71,29,51,23,0
0.17,330.59,24.71,30,52,23,0
0.17,3.96,24.71,30,52,20,0
0.17,-22.89,24.71,29,51,22,0
0.17,-26.13,24.71,30,53,21,0
0.17,-24.83,24.71,30,52,22,0
0.17,29.13,24.71,29,52,22,0
0.17,-40.92,24.71,28,52,20,0
0.17,68.38,24.71,30,53,22,0
0.17,-15.03,24.69,30,52,20,0
0.17,2.15,24.69,31,51,21,0
0.17,6.6,24.69,30,53,21,0
0.17,-78.98,24.69,30,52,20,0
0.17,-14.54,24.71,30,52,21,0
0.17,10.57,24.71,30,52,20,0
0.17,29.64,24.71,30,53,20,0
0.17,16.66,24.71,30,52,21,0
0.17,4.62,24.71,30,53,19,0
0.17,-3.61,24.71,29,53,19,0
0.17,-1.51,24.71,28,53,20,0
0.17,0.52,24.71,29,52,20,0
0.17,16.77,24.71,29,53,20,0
0.17,-4.36,24.71,29,52,19,0
0.17,-1.65,24.71,30,52,20,0
0.17,5.47,24.71,29,53,20,0
0.17,-8.65,24.71,30,53,20,0
0.17,-1.63,24.71,29,53,19,0
0.17,9.61,24.71,29,53,20,0
0.17,9.22,24.71,29,53,21,0
0.17,-14.77,24.73,31,53,19,0
0.17,13.84,24.73,27,56,19,0
0.17,-3.27,24.73,22,56,17,0
0.17,-18.35,24.73,15,59,15,0
0.17,-14.48,24.73,20,58,19,0
0.17,42.58,24.73,9,57,11,0
0.17,18.26,24.73,22,57,15,0
0.17,15.61,24.73,23,56,21,0
0.17,-1.58,24.73,26,55,18,0
0.17,-35.74,24.73,24,55,23,0
0.17,25.71,24.73,20,56,22,0
0.17,-11.85,24.73,22,57,18,0
0.17,-27.45,24.75,22,56,21,0
0.17,-22.68,24.75,21,56,20,0
0.17,8.85,24.75,22,56,22,0
0.17,-1.05,24.75,21,56,19,0
0.17,-5.38,24.73,22,56,21,0
0.17,-2.84,24.73,21,56,21,0
0.17,-2.06,24.73,22,56,20,0
0.17,-0.52,24.73,22,55,20,0
0.17,-2.07,24.71,22,55,21,0
0.17,-5.17,24.71,21,56,22,0
0.17,-7.21,24.71,22,56,20,0
0.17,-11.51,24.71,22,56,22,0
0.17,-3.27,24.73,22,56,20,0
0.17,-0.91,24.73,22,55,20,0
0.17,5.22,24.73,23,55,21,0
0.17,1.93,24.73,22,55,20,0
0.17,0.36,24.71,23,56,20,0
0.17,-1.48,24.71,23,56,21,0
0.17,0.19,24.71,23,56,19,0
0.17,-4.19,24.71,22,56,21,0
0,-0.03,30.83,-12,41,56,0
0.08,5.06,30.83,-27,46,34,0
0.13,17.91,30.83,-28,49,30,0
0.12,79.34,30.83,-18,54,37,0
0.12,228.25,30.83,-41,47,6,0
0.13,-486.5,30.83,-30,50,17,0
0.13,-5.9,30.83,-28,46,38,0
0.13,156.15,30.83,-23,46,38,0
0.13,46.78,30.81,-27,45,38,0
0.13,4.05,30.81,-7,62,11,0
0.13,0.22,30.81,-38,46,16,0
0.13,0.76,30.81,-30,45,33,0
0.13,3.55,30.81,-21,44,40,0
0.13,12.74,30.81,-3,45,44,0
0.13,10.43,30.81,12,46,40,0
0.13,-4.53,30.81,19,49,38,0
0.13,-13.88,30.79,17,57,23,0
0.13,-1.83,30.79,6,53,32,0
0.12,149.25,30.79,-7,51,40,0
0.13,-314.24,30.79,1,52,36,0
0.13,-48.24,30.75,6,52,34,0
0.13,246.75,30.75,7,52,34,0
0.13,96.5,30.75,6,53,28,0
0.13,-220.57,30.75,12,54,31,0
0.13,-51.64,30.75,7,53,36,0
0.13,-47.49,30.75,6,54,32,0
0.13,50.18,30.75,4,53,31,0
0.13,42.3,30.75,5,56,31,0
0.13,146.92,30.75,-6,53,35,0
0.13,-197.78,30.75,-5,52,35,0
0.13,-17.14,30.75,3,54,32,0
0.13,-69.66,30.75,0,53,34,0
0.13,293.94,30.77,13,53,29,0
0.13,55.21,30.77,18,50,30,0
0.13,-160.75,30.77,23,50,26,0
0.13,35.73,30.77,26,50,32,0
0.13,68.11,30.75,16,55,16,0
0.12,-0.25,30.75,17,52,29,0
0.12,58.78,30.75,26,51,31,0
0.13,22.26,30.75,20,49,34,0
0.13,-45.76,30.77,21,48,37,0
0.13,-19.03,30.77,30,47,33,0
0.13,103.78,30.77,31,46,32,0
0.13,203.65,30.77,39,46,24,0
0.13,117.28,30.77,35,46,26,0
0.13,-3.82,30.77,35,45,29,0
0.13,-86.55,30.77,34,45,29,0
0.13,-521.96,30.77,32,46,29,0
0.14,-192.47,30.79,36,45,29,0
0.13,106.73,30.79,35,45,29,0
0.13,91.23,30.79,35,45,29,0
0.13,-70.29,30.79,36,45,30,0
0.13,289.85,30.81,34,45,28,0
0.13,-24.46,30.81,35,46,28,0
0.13,-231.86,30.81,34,45,30,0
0.13,126.82,30.81,34,46,30,0
0.13,-39.75,30.79,33,46,30,0
0.13,-4.05,30.79,34,44,32,0
0.13,122.62,30.79,33,45,32,0
0.13,101.23,30.79,35,46,30,0
0.13,196.12,30.81,30,46,31,0
0.13,-60.04,30.81,28,46,33,0
0.13,34.32,30.81,29,47,33,0
0.13,-78.56,30.81,28,46,33,0
0.13,-146.2,30.81,29,46,34,0
0.14,-22.7,30.81,27,46,35,0
0.13,-26.79,30.81,27,46,35,0
0.13,-556.44,30.81,27,46,35,0
0.13,-16.34,30.83,27,47,34,0
0.14,322.74,30.83,25,47,34,0
0.14,296.8,30.83,26,47,36,0
0.13,-39.45,30.83,25,49,32,0
0.13,-128.84,30.83,25,50,36,0
0.14,30.52,30.83,19,50,33,0
0.13,155.93,30.83,18,51,34,0
0.13,-164.22,30.83,14,51,33,0
0.13,-466.33,30.83,14,48,39,0
0.13,276.38,30.83,17,46,41,0
0.13,143.98,30.83,16,45,40,0
0.13,64.69,30.83,18,43,43,0
0.13,123.65,30.83,19,42,44,0
0.13,412.14,30.83,20,41,43,0
0.14,195.77,30.83,25,40,45,0
0.13,-62.67,30.83,21,40,45,0
0.14,6.32,30.81,19,43,40,0
0.14,95.36,30.81,25,45,44,0
0.14,-116.43,30.81,21,48,34,0
0.13,-47.78,30.81,23,41,44,0
0.13,-256.32,30.81,27,42,40,0
0.13,-1508.82,30.81,33,42,38,0
0.13,380.24,30.81,29,41,36,0
0.13,202.38,30.81,30,39,39,0
0.13,74.9,30.83,32,38,41,0
0.13,36.78,30.83,34,37,39,0
0.13,170.34,30.83,37,36,40,0
0.13,380.76,30.83,33,39,36,0
0.13,49.39,30.81,36,36,38,0
0.13,-88.22,30.81,38,35,40,0
0.13,-58.25,30.81,36,36,36,0
0.13,-23.64,30.81,35,37,37,0
0.13,2.09,30.81,37,36,40,0
0.13,2.18,30.81,35,42,32,0
0.14,-27.31,30.81,32,41,38,0
0.13,-24.91,30.81,33,42,36,0
0.13,20.03,30.81,30,42,37,0
0.13,-29.18,30.81,30,43,33,0
0.13,6.53,30.81,31,44,34,0
0.13,-88.85,30.81,32,44,34,0
0.13,6.96,30.77,34,44,32,0
0.13,1.47,30.77,39,45,28,0
0.13,16.57,30.77,36,42,33,0
0.13,-5.29,30.77,41,49,14,0
0.13,11.85,30.79,20,52,11,0
0.13,-13.54,30.79,24,49,28,0
0.13,20.54,30.79,26,47,31,0
0.13,-5.09,30.79,29,47,30,0
0.13,67.97,30.79,33,48,24,0
0.13,137.38,30.79,41,47,16,0
0.13,-151.54,30.79,49,44,13,0
0.13,-111.35,30.79,45,44,10,0
0.13,-113.73,30.77,49,42,10,0
0.13,-1.46,30.77,48,42,10,0
0.13,110.52,30.77,52,40,11,0
0.13,58.42,30.77,43,43,11,0
0.14,6.5,30.75,51,40,13,0
0.14,52.22,30.75,48,41,14,0
0.14,130.75,30.75,49,41,15,0
0.14,-58.17,30.75,48,40,16,0
0.14,52.24,30.77,49,40,14,0
0.14,-138.57,30.77,50,40,13,0
0.14,-70.63,30.77,53,41,12,0
0.14,-60.14,30.77,37,46,16,0
0.14,-261.94,30.77,34,49,19,0
0.13,204.03,30.77,29,51,16,0
0.14,78.53,30.77,36,49,20,0
0.14,34.16,30.77,36,49,20,0
0.14,19.73,30.75,37,48,21,0
0.14,20.81,30.75,31,51,15,0
0.14,24.49,30.75,38,50,18,0
0.14,116.01,30.75,34,50,19,0
0.14,-143.82,30.75,31,50,19,0
0.14,-90.34,30.75,33,51,22,0
0.14,66.31,30.75,31,51,25,0
0.14,-19.81,30.75,22,50,29,0
0.14,-314.61,30.75,12,54,27,0
0.14,-305.46,30.75,14,55,32,0
0.14,57.86,30.75,-1,56,28,0
0.14,224.25,30.75,-3,56,28,0
0.14,251.76,30.77,-1,55,32,0
0.14,-184.25,30.77,-5,56,29,0
0.14,-430.72,30.77,-6,57,26,0
0.14,-95.31,30.77,-4,57,28,0
0.14,163.2,30.75,-6,57,28,0
0.14,483.27,30.75,-5,57,28,0
0.14,110.93,30.75,-7,57,27,0
0.14,-21.73,30.75,-9,57,27,0
0.14,-18.05,30.77,-11,55,28,0
0.14,-14.91,30.77,-9,56,29,0
0.14,-2.97,30.77,-10,57,27,0
0.14,-14.44,30.77,-8,57,26,0
0.14,-18.64,30.77,-7,58,24,0
0.14,-32.66,30.77,0,57,27,0
0.14,47.51,30.77,0,56,23,0
0.14,-49.57,30.77,18,60,22,0
0.14,-19.08,30.77,3,59,19,0
0.14,-26.27,30.77,9,56,29,0
0.14,108.15,30.77,15,54,29,0
0.14,101.44,30.77,11,54,34,0
0.14,-176.76,30.75,8,53,27,0
0.14,-31.58,30.75,12,54,28,0
0.14,18.64,30.75,16,55,29,0
0.14,-17.61,30.75,15,54,29,0
0.14,-119.8,30.75,13,55,31,0
0.14,-17.08,30.75,11,55,31,0
0.14,-158.84,30.75,3,55,32,0
0.14,1.27,30.75,6,56,28,0
0.14,18.78,30.71,4,54,34,0
0.14,-72.81,30.71,3,53,33,0
0.14,-68.75,30.71,0,53,34,0
0.14,222.65,30.71,1,53,33,0
0.14,57.13,30.73,0,53,34,0
0.14,56.03,30.73,0,54,33,0
0.14,-36.74,30.73,4,54,33,0
0.14,-4.02,30.73,2,54,32,0
0.14,-22.11,30.69,1,55,30,0
0.14,-33.81,30.69,6,55,31,0
0.14,-41.14,30.69,9,55,30,0
0.14,75.27,30.69,2,55,30,0
0.14,11.75,30.71,4,55,29,0
0.14,-14.6,30.71,3,55,30,0
0.14,-89.99,30.71,4,55,31,0
0.14,-24.81,30.71,5,55,31,0
0.14,59.68,30.71,7,56,28,0
0.14,-37.09,30.71,4,55,32,0
0.14,27.61,30.71,-1,54,32,0
0.14,16.12,30.71,3,56,27,0
0.15,8.42,30.69,3,56,30,0
0.14,-102.63,30.69,2,55,30,0
0.15,69.47,30.69,2,55,31,0
0.15,48.74,30.69,2,55,31,0
0.15,-41.8,30.69,2,56,30,0
0.15,-5.74,30.69,2,56,30,0
0.15,-20.29,30.69,3,56,30,0
0.15,35.3,30.69,0,55,32,0
0.15,-28.58,30.67,2,55,32,0
0.15,-10.24,30.67,0,54,32,0
0.15,-73.95,30.67,1,54,33,0
0.15,-5.13,30.67,1,54,32,0
0.15,89.39,30.69,0,54,33,0
0.15,-10.06,30.69,0,54,32,0
0.15,-10.41,30.69,1,54,31,0
0.15,-16.01,30.69,1,53,35,0
0.15,14.79,30.65,1,53,35,0
0.14,-9.52,30.65,0,54,33,0
0.15,-38.5,30.65,1,53,34,0
0.15,-21.84,30.65,0,53,34,0
0.15,50.21,30.67,0,54,33,0
0.15,27.81,30.67,-1,53,33,0
0.15,-6.53,30.67,-1,53,34,0
0.15,13.64,30.67,0,53,34,0
0.15,-0.74,30.67,0,54,33,0
0.15,11.58,30.67,0,54,33,0
0.15,-15.37,30.67,0,54,33,0
0.15,-6.7,30.67,-1,53,33,0
0.15,-15.24,30.67,0,53,34,0
0.15,28.33,30.67,0,53,33,0
0.15,16.27,30.67,-1,54,32,0
0.15,-4.98,30.67,0,54,33,0
0.15,7.31,30.65,0,54,33,0
0.15,-0.59,30.65,0,54,33,0
0.15,5.35,30.65,-1,54,33,0
0.15,-6.11,30.65,-1,54,33,0
0.15,-15.63,30.67,0,54,33,0
0.15,3.13,30.67,0,54,33,0
0.15,-0.8,30.67,0,54,33,0
0.15,1.05,30.67,0,54,33,0
0.15,-3.26,30.65,0,54,32,0
0.15,-11.56,30.65,0,54,33,0
0.15,7.16,30.65,0,55,32,0
0.15,-0.95,30.65,0,55,32,0
0,-0.03,30.13,-9,-6,63,1
0.05,5.06,30.13,-6,-6,65,1
0.08,17.91,30.13,-5,-6,65,1
0.08,79.34,30.13,-5,-6,64,1
0.08,228.25,30.13,-5,-6,64,1
0.08,-486.5,30.13,-4,-6,64,1
0.08,-5.9,30.13,-4,-6,64,1
0.08,156.15,30.13,-4,-6,64,1
0.08,46.78,30.13,-3,-6,64,1
0.09,4.05,30.13,-4,-5,64,1
0.08,0.21,30.13,-1,-7,64,1
0.09,0.97,30.13,-2,-6,63,1
0.08,4.36,30.15,21,-8,59,1
0.09,16.39,30.15,8,-10,60,1
0.08,7.32,30.15,15,-15,61,1
0.08,-13.25,30.15,10,-8,63,1
0.08,16.75,30.15,9,-8,65,1
0.08,82.44,30.15,7,-7,64,1
0.09,76.04,30.15,7,-7,64,1
0.08,-259.49,30.15,7,-7,64,1
0.08,-17.27,30.15,7,-7,64,1
0.09,32.18,30.15,7,-7,64,1
0.08,25.77,30.15,7,-7,64,1
0.09,8.78,30.15,7,-8,63,1
0.09,7.3,30.15,10,-7,63,1
0.08,4.26,30.15,11,-7,64,1
0.09,0.63,30.15,7,-4,63,1
0.09,41.29,30.15,11,-7,63,1
0.08,-49.16,30.13,6,-1,64,1
0.09,14.63,30.13,4,-4,65,1
0.08,4.04,30.13,9,-6,65,1
0.08,10.47,30.13,8,-7,63,1
0.09,-16.08,30.15,7,-7,64,1
0.08,5.53,30.15,7,-7,64,1
0.09,-6.32,30.15,8,-7,64,1
0.08,-28.57,30.15,7,-6,64,1
0.08,14.78,30.15,7,-7,64,1
0.09,13.07,30.15,7,-7,64,1
0.08,10.55,30.15,7,-7,64,1
0.09,1.63,30.15,7,-7,64,1
0.08,2.03,30.13,0,-10,63,1
0.08,-2.69,30.13,6,-9,64,1
0.08,-4.45,30.13,1,-7,66,1
0.08,1.07,30.13,6,-6,68,1
0.08,22.14,30.11,3,-7,65,1
0.09,-59.99,30.11,2,-6,65,1
0.08,-53.27,30.11,2,-7,64,1
0.09,98,30.11,1,-7,64,1
0.09,64.44,30.13,2,-6,65,1
0.09,-33.58,30.13,0,-7,64,1
0.08,8.87,30.13,0,-6,65,1
0.08,-8.77,30.13,-1,-6,64,1
0.09,8.52,30.13,-1,-7,62,1
0.09,-19.44,30.13,2,-6,65,1
0.09,0.11,30.13,2,-7,63,1
0.09,10.1,30.13,6,-7,64,1
0.08,-10.46,30.13,3,-7,64,1
0.09,-5.49,30.13,4,-7,64,1
0.09,6.89,30.13,4,-7,64,1
0.09,-11.56,30.13,3,-7,64,1
0.09,-19.12,30.11,3,-7,64,1
0.08,4.63,30.11,3,-7,64,1
0.09,-0.53,30.11,0,-7,64,1
0.08,7.64,30.11,-1,-7,64,1
0.08,9.79,30.13,-2,-7,64,1
0.09,18.09,30.13,-2,-7,64,1
0.08,5.89,30.13,-2,-7,64,1
0.08,-26.9,30.13,-2,-7,64,1
0.09,-6.15,30.09,-2,-7,64,1
0.08,-8.95,30.09,-2,-7,64,1
0.09,1.73,30.09,-2,-7,64,1
0.09,-5.36,30.09,-2,-7,64,1
0.09,8.56,30.07,-2,-7,65,1
0.09,-5.74,30.07,-2,-7,64,1
0.09,5.92,30.07,-3,-7,64,1
0.09,-0.25,30.07,-2,-7,64,1
0.09,-0.09,30.09,-3,-7,64,1
0.09,6.63,30.09,-3,-7,64,1
0.09,-18.83,30.09,-3,-7,64,1
0.09,8.8,30.09,-3,-7,64,1
0.09,-4.04,30.09,-3,-7,64,1
0.09,1.19,30.09,-3,-7,64,1
0.09,6.61,30.09,-3,-7,64,1
0.09,-16.06,30.09,-3,-7,64,1
0.09,12.42,30.07,-3,-7,65,1
0.09,6.07,30.07,-2,-7,64,1
0.09,-13.32,30.07,-3,-7,64,1
0.09,11.88,30.07,-2,-7,64,1
0.09,-0.36,30.05,-3,-7,64,1
0.09,6.07,30.05,-3,-7,64,1
0.09,2.73,30.05,-3,-7,64,1
0.09,-18.21,30.05,-3,-7,64,1
0.09,19.35,30.05,-3,-7,64,1
0.09,-1.44,30.05,-3,-7,64,1
0.09,6.25,30.05,-3,-7,64,1
0.09,6.24,30.05,-2,-7,64,1
0.09,-15.44,30.05,-2,-7,64,1
0.09,13.69,30.05,-2,-7,64,1
0.09,-3.58,30.05,-3,-7,64,1
0.09,3.32,30.05,-3,-7,64,1
0.09,3.15,30.03,-3,-7,64,1
0.09,-15.95,30.03,-3,-7,64,1
0.09,9.83,30.03,-3,-7,64,1
0.09,-5.76,30.03,-3,-7,64,1
0.09,4.41,30.03,-3,-7,64,1
0.09,6.05,30.03,-4,-7,64,1
0.09,-14.1,30.03,-3,-7,65,1
0.09,6.08,30.03,-3,-7,65,1
0.09,-9.58,29.99,-4,-7,64,1
0.09,2.43,29.99,-5,-7,64,1
0.09,3.65,29.99,-5,-7,64,1
0.09,-12.46,29.99,-6,-7,64,1
0.09,8.55,30.01,-5,-6,65,1
0.09,-7.96,30.01,-6,-7,64,1
0.09,6.03,30.01,-6,-7,64,1
0.09,0.99,30.01,-6,-7,64,1
0.09,-4.4,30.01,-6,-7,64,1
0.09,1.19,30.01,-6,-7,64,1
0.09,-10.96,30.01,-6,-7,64,1
0.09,14.58,30.01,-6,-7,64,1
0.09,-0.63,29.97,-6,-7,64,1
0.09,-3.72,29.97,-6,-7,64,1
0.09,6.22,29.97,-6,-7,64,1
0.09,-7.89,29.97,-6,-7,64,1
0.09,6.6,29.97,-6,-7,64,1
0.09,-0.06,29.97,-6,-7,64,1
0.09,-3.9,29.97,-6,-7,64,1
0.09,6.26,29.97,-6,-7,64,1
0.09,-11.15,29.95,-6,-7,64,1
0.09,7.51,29.95,-6,-7,64,1
0.09,0.58,29.95,-6,-7,64,1
0.09,-8.17,29.95,-6,-7,64,1
0.09,5.5,29.95,-6,-7,64,1
0.09,-4.09,29.95,-6,-7,64,1
0.09,4.9,29.95,-6,-7,64,1
0.09,0.83,29.95,-8,-8,64,1
0.09,-8.13,29.97,-10,-7,64,1
0.09,7.69,29.97,-10,-7,64,1
0.09,-2.89,29.97,-11,-6,64,1
0.09,8.85,29.97,-10,-7,63,1
0.09,-0.35,29.95,-10,-7,64,1
0.09,-13.32,29.95,-10,-6,64,1
0.09,8.72,29.95,-10,-7,64,1
0.09,-5.61,29.95,-10,-7,64,1
0.09,4.08,29.93,-10,-6,64,1
0.09,3.37,29.93,-10,-7,64,1
0.09,-16.42,29.93,-10,-7,64,1
0.09,6.89,29.93,-10,-7,64,1
0.09,-2.18,29.93,-10,-7,64,1
0.09,-1.54,29.93,-9,-7,64,1
0.09,4.55,29.93,-10,-6,64,1
0.09,-9.62,29.93,-4,-7,63,1
0.09,7.09,29.91,5,-6,63,1
0.1,-2.59,29.91,11,-7,63,1
0.09,-17.89,29.91,7,-6,63,1
0.09,-51.4,29.91,12,-6,63,1
0.1,-46.1,29.91,9,-7,63,1
0.1,75.13,29.91,9,-7,63,1
0.1,60.85,29.91,7,-7,63,1
0.1,-7.35,29.91,9,-7,65,1
0.1,2.02,29.91,7,-6,65,1
0.09,-19.74,29.91,5,-7,64,1
0.1,-9.83,29.91,6,-7,64,1
0.1,-20.03,29.91,5,-6,64,1
0.1,-0.1,29.91,5,-6,64,1
0.1,-2.79,29.91,3,-6,63,1
0.1,-12.09,29.91,3,-7,65,1
0.1,19.93,29.91,4,-7,64,1
0.1,28.31,29.91,9,-7,64,1
0.1,11.98,29.91,9,-8,63,1
0.1,12.42,29.91,6,-6,64,1
0.1,-44.24,29.91,4,-7,64,1
0.1,-45.11,29.91,5,-6,63,1
0.1,1.04,29.91,6,-6,63,1
0.1,6.33,29.91,8,-6,64,1
0.1,13.64,29.91,8,-6,64,1
0.1,-22.31,29.87,9,-7,64,1
0.1,1.47,29.87,8,-6,64,1
0.1,8.31,29.87,8,-6,64,1
0.1,24.85,29.87,8,-7,64,1
0.1,2.04,29.89,8,-6,64,1
0.1,-13.53,29.89,8,-6,64,1
0.1,-1.32,29.89,8,-6,64,1
0.1,-6.08,29.89,8,-6,64,1
0.1,1.38,29.89,8,-7,64,1
0.1,6.04,29.89,8,-7,64,1
0.1,-13.72,29.89,8,-6,64,1
0.1,3.76,29.89,8,-7,64,1
0.1,-4.27,29.85,8,-6,64,1
0.1,4.51,29.85,8,-6,64,1
0.1,4.42,29.85,8,-6,64,1
0.1,-11.41,29.85,8,-7,64,1
0.1,9.64,29.87,8,-7,64,1
0.1,-5.3,29.87,8,-7,64,1
0.1,1.31,29.87,8,-6,64,1
0.1,6.78,29.87,8,-6,64,1
0.1,-14.4,29.85,8,-7,64,1
0.1,7.69,29.85,8,-6,64,1
0.1,-0.94,29.85,8,-7,64,1
0.1,6.92,29.85,8,-6,64,1
0.1,4.62,29.87,8,-7,64,1
0.1,-15.52,29.87,8,-6,64,1
0.1,7.27,29.87,8,-7,64,1
0.1,-5.26,29.87,8,-6,64,1
0.1,5.32,29.85,8,-6,64,1
0.1,5.53,29.85,8,-7,64,1
0.1,-14.59,29.85,8,-6,64,1
0.1,9.01,29.85,8,-7,64,1
0.1,-2.19,29.81,8,-6,64,1
0.1,4.86,29.81,8,-6,64,1
0.1,2.35,29.81,8,-6,64,1
0.1,-15.43,29.81,8,-7,64,1
0.1,10.15,29.81,8,-6,64,1
0.1,-1.03,29.81,8,-7,64,1
0.1,4.49,29.81,8,-6,64,1
0.1,5.98,29.81,8,-6,63,1
0.1,-12.64,29.83,8,-6,64,1
0.1,7.52,29.83,8,-6,64,1
0.1,-4.69,29.83,8,-6,64,1
0.1,1.66,29.83,8,-6,64,1
0.1,7.91,29.81,8,-7,64,1
0.1,-15.73,29.81,8,-7,64,1
0.1,8.44,29.81,8,-6,64,1
0.11,-1.84,29.81,8,-6,64,1
0.1,3,29.79,8,-6,64,1
0.1,4.83,29.79,8,-6,64,1
0.1,-13.54,29.79,8,-7,64,1
0.1,8.49,29.79,8,-6,64,1
0.1,-1.82,29.77,8,-6,64,1
0.11,4.62,29.77,8,-6,64,1
0.11,11.81,29.77,8,-7,64,1
0.11,-16.52,29.77,8,-6,64,1
0.1,-3.75,29.79,8,-6,64,1
0.11,-7.34,29.79,8,-6,64,1
0.11,3.24,29.79,8,-6,64,1
0.11,11.42,29.79,8,-6,64,1
0.11,-11.91,29.77,8,-6,64,1
0.1,8.85,29.77,8,-6,64,1
0.11,-5.43,29.77,8,-6,64,1
0.11,2.63,29.77,8,-7,64,1
0,-0.03,31.87,6,-4,60,1
0.17,5.06,31.87,4,-3,64,1
0.26,17.91,31.87,6,-4,63,1
0.25,79.34,31.87,5,-3,64,1
0.25,228.25,31.87,6,-3,63,1
0.25,-486.5,31.87,6,-3,64,1
0.25,-5.9,31.87,6,-4,64,1
0.25,156.15,31.87,6,-3,65,1
0.25,46.78,31.83,6,-4,64,1
0.25,4.05,31.83,5,-4,64,1
0.25,0.15,31.83,6,-5,64,1
0.25,0.79,31.83,6,-3,64,1
0.25,3.43,31.83,6,-3,64,1
0.25,13.76,31.83,6,-3,64,1
0.25,16.22,31.83,6,-3,64,1
0.26,-16.23,31.83,7,-4,64,1
0.26,11.1,31.83,9,-3,64,1
0.25,42.58,31.83,5,-4,60,1
0.25,-11.75,31.83,16,-4,66,1
0.26,-96.48,31.83,8,-1,66,1
0.26,43.93,31.83,5,-2,60,1
0.26,1.12,31.83,2,-1,64,1
0.26,63.12,31.83,2,-2,66,1
0.26,-65.35,31.83,1,-3,65,1
0.26,126.46,31.81,-1,-1,62,1
0.26,-47.67,31.81,4,0,72,1
0.26,53.35,31.81,3,-2,65,1
0.26,-9.59,31.81,4,-1,65,1
0.26,22.68,31.81,7,-3,67,1
0.26,-66.43,31.81,6,-2,65,1
0.26,41.11,31.81,6,-2,63,1
0.26,-30.37,31.81,5,-2,63,1
0.25,-14.4,31.79,4,-4,63,1
0.25,-1.49,31.79,3,-3,71,1
0.25,5.02,31.79,4,-2,65,1
0.25,0.65,31.79,6,-1,63,1
0.26,-22.08,31.79,0,0,68,1
0.25,36.8,31.79,4,-3,64,1
0.25,-28.63,31.79,4,0,59,1
0.26,-98.57,31.79,8,-4,65,1
0.26,25.69,31.77,4,-1,64,1
0.26,40.17,31.77,5,-4,66,1
0.25,-125.58,31.77,7,-3,69,1
0.25,26.87,31.77,10,-2,66,1
0.25,75.49,31.77,9,-3,62,1
0.25,12.45,31.77,7,-3,66,1
0.25,-49.11,31.77,8,-3,64,1
0.25,4.28,31.77,7,-3,66,1
0.25,-118.98,31.75,6,-3,65,1
0.25,-131.7,31.75,5,-4,62,1
0.25,139.25,31.75,6,-3,65,1
0.25,-3.13,31.75,8,-1,58,1
0.25,-37.14,31.75,5,-3,64,1
0.26,131.27,31.75,7,-4,67,1
0.25,-22.17,31.75,2,-3,69,1
0.26,1.54,31.75,5,-3,64,1
0.25,220.6,31.73,4,-3,64,1
0.25,-3.34,31.73,5,-2,64,1
0.26,-131.44,31.73,4,-3,63,1
0.25,-2.14,31.73,5,-4,64,1
0.26,-31.84,31.73,6,-3,67,1
0.25,-62.2,31.73,8,-3,59,1
0.26,-30.61,31.73,1,-1,62,1
0.26,-12.8,31.73,2,-3,65,1
0.26,105.81,31.73,5,-2,64,1
0.25,1.9,31.73,3,-3,63,1
0.26,-2.23,31.73,6,-3,65,1
0.26,-66.32,31.73,6,-3,64,1
0.26,65.82,31.71,5,-3,63,1
0.26,0.91,31.71,5,-3,64,1
0.26,-6.2,31.71,5,-3,64,1
0.26,-1.67,31.71,5,-2,64,1
0.26,12.53,31.71,5,-3,65,1
0.26,-8.19,31.71,4,-3,65,1
0.26,-7.19,31.71,6,-2,65,1
0.26,21.3,31.71,6,-2,63,1
0.26,-0.27,31.71,6,-4,63,1
0.26,-19.18,31.71,5,-3,63,1
0.26,12.37,31.71,6,-2,65,1
0.26,27.59,31.71,7,-3,65,1
0.26,-19.65,31.71,8,-3,64,1
0.26,18.6,31.71,9,-4,68,1
0.27,30.04,31.71,6,-4,63,1
0.26,-48.49,31.71,8,-4,63,1
0.26,9.04,31.71,9,-3,65,1
0.26,1.85,31.71,9,-3,64,1
0.26,-95.32,31.71,8,-3,64,1
0.26,-14.76,31.71,8,-3,63,1
0.26,-7.48,31.71,8,-3,63,1
0.26,-22.12,31.71,9,-3,67,1
0.26,28.76,31.71,6,-3,65,1
0.26,17.09,31.71,7,-3,63,1
0.26,-32.07,31.71,6,-3,64,1
0.26,45.48,31.71,6,-3,64,1
0.26,10.79,31.71,6,-3,64,1
0.26,-86.47,31.71,6,-3,64,1
0.26,17.56,31.69,6,-2,63,1
0.26,10.4,31.69,6,-2,64,1
0.26,-37.5,31.69,6,-3,64,1
0.26,30.37,31.69,5,-3,62,1
0.25,10.89,31.67,3,-4,64,1
0.26,-15.49,31.67,4,-4,64,1
0.26,41.29,31.67,5,-3,64,1
0.25,4.25,31.67,5,-3,64,1
0.26,-64.98,31.69,4,-2,64,1
0.25,26.99,31.69,5,-3,64,1
0.26,-16.91,31.69,4,-3,64,1
0.26,-1.17,31.69,4,-3,64,1
0.26,25.11,31.65,4,-3,64,1
0.26,-17.91,31.65,4,-3,64,1
0.26,28.08,31.65,4,-3,64,1
0.26,22.38,31.65,5,-3,64,1
0.25,-25.19,31.67,4,-3,64,1
0.26,28.91,31.67,4,-3,64,1
0.26,24.6,31.67,5,-3,64,1
0.25,-49.67,31.67,3,-4,64,1
0.25,29.23,31.67,6,-4,66,1
0.26,18.17,31.67,5,-5,64,1
0.25,-49.38,31.67,5,-4,65,1
0.26,37.9,31.67,5,-3,63,1
0.25,15.57,31.63,4,0,66,1
0.25,-48.29,31.63,6,-2,64,1
0.26,31.37,31.63,4,-2,64,1
0.26,3.64,31.63,5,-3,64,1
0.26,-36.54,31.65,4,-3,64,1
0.25,9,31.65,5,-4,65,1
0.25,-11.39,31.65,5,-4,64,1
0.26,-1.07,31.65,7,-3,65,1
0.26,24.41,31.65,7,-4,64,1
0.26,-12.42,31.65,7,-3,64,1
0.25,20.03,31.65,7,-3,65,1
0.26,21.52,31.65,7,-3,64,1
0.25,-27.07,31.63,8,-4,64,1
0.26,25.05,31.63,5,-2,64,1
0.25,10.11,31.63,6,-3,64,1
0.26,-46.93,31.63,6,-2,65,1
0.25,26.21,31.65,6,-4,64,1
0.26,18.27,31.65,6,-3,64,1
0.25,-60.07,31.65,5,-4,64,1
0.25,28.23,31.65,7,-3,64,1
0.25,9.72,31.61,7,-4,65,1
0.25,-48.94,31.61,8,-4,66,1
0.26,19.3,31.61,5,-4,64,1
0.26,-0.19,31.61,6,-4,65,1
0.26,-30.8,31.63,5,-4,64,1
0.25,18.59,31.63,6,-4,64,1
0.26,-16.08,31.63,5,-4,64,1
0.25,-9.23,31.63,6,-4,65,1
0.26,16.21,31.61,5,-4,64,1
0.25,-23.09,31.61,5,-4,63,1
0.26,8.44,31.61,5,-4,65,1
0.26,16.91,31.61,4,-3,64,1
0.25,-26.33,31.59,5,-3,64,1
0.25,19.82,31.59,4,-3,64,1
0.26,19.22,31.59,4,-3,64,1
0.25,-26.31,31.59,4,-3,64,1
0.25,22.33,31.63,4,-3,65,1
0.25,21.29,31.63,4,-4,64,1
0.26,-18.44,31.63,4,-3,66,1
0.26,22.76,31.63,3,-4,64,1
0.25,12.38,31.63,5,-3,65,1
0.25,-33.13,31.63,3,-3,64,1
0.26,31.4,31.63,3,-4,64,1
0.25,10.2,31.63,3,-3,64,1
0.26,-61.88,31.59,3,-3,64,1
0.25,18.52,31.59,3,-3,64,1
0.26,2.73,31.59,2,-4,64,1
0.26,-53.78,31.59,3,-3,64,1
0.26,22.4,31.61,3,-4,64,1
0.25,-1.51,31.61,3,-4,64,1
0.26,-29.72,31.61,4,-3,64,1
0.25,19.5,31.61,4,-3,65,1
0.26,-10.06,31.59,4,-3,65,1
0.25,-17.05,31.59,3,-4,64,1
0.25,26.11,31.59,4,-2,66,1
0.26,-16.88,31.59,6,-4,64,1
0.25,-0.64,31.59,3,-5,64,1
0.26,13.39,31.59,2,-2,65,1
0.27,-47.19,31.59,4,-3,65,1
0.27,-73.77,31.59,4,-3,64,1
0.27,105.37,31.59,4,-3,63,1
0.27,77.19,31.59,4,-3,64,1
0.27,8.85,31.59,10,-3,65,1
0.27,-14.44,31.59,7,-3,59,1
0.27,-31.67,31.59,7,-3,63,1
0.27,-23.11,31.59,3,-3,63,1
0.27,-12.53,31.59,4,-3,65,1
0.27,33.06,31.59,3,-3,65,1
0.27,-68.85,31.59,3,-3,65,1
0.27,-21,31.59,1,-4,62,1
0.27,63.27,31.59,3,-3,64,1
0.27,-36.78,31.59,5,-2,65,1
0.27,7.29,31.57,3,-2,64,1
0.27,-0.46,31.57,3,-2,63,1
0.27,9.61,31.57,2,-4,63,1
0.27,1.8,31.57,5,-3,65,1
0.27,-28.54,31.57,6,-2,56,1
0.27,-19.54,31.57,3,-3,64,1
0.27,-19.21,31.57,3,-1,62,1
0.27,-56.41,31.57,3,-2,65,1
0.27,200.47,31.57,5,-3,64,1
0.26,77.61,31.57,3,-4,63,1
0.26,-48.31,31.57,3,-1,66,1
0.26,209.49,31.57,9,-4,57,1
0.27,14.47,31.61,4,-2,66,1
0.26,-45.97,31.61,4,-3,64,1
0.26,67.24,31.61,4,-3,64,1
0.26,48.35,31.61,5,-4,65,1
0.26,-1.35,31.61,6,-3,64,1
0.26,29.33,31.61,4,-4,63,1
0.26,-36.84,31.61,6,-3,64,1
0.26,13.79,31.61,6,-3,65,1
0.26,12.22,31.61,4,-4,64,1
0.26,-19.58,31.61,4,-3,64,1
0.26,34.95,31.61,4,-3,64,1
0.26,16.21,31.61,5,-3,64,1
0.26,-33.23,31.57,5,-3,64,1
0.26,0.96,31.57,5,-4,63,1
0.26,17.2,31.57,5,-3,66,1
0.26,-20.52,31.57,5,-3,65,1
0.26,10.76,31.59,6,-3,64,1
0.26,13.3,31.59,4,-3,64,1
0.26,-46.01,31.59,4,-3,63,1
0.26,-3.27,31.59,4,-3,64,1
0.26,-0.41,31.57,4,-3,64,1
0.26,-34.05,31.57,5,-3,64,1
0.26,16.29,31.57,5,-3,64,1
0.26,4.49,31.57,5,-2,63,1
0.26,-33.48,31.57,4,-3,63,1
0.26,18.81,31.57,5,-3,63,1
0.26,8.06,31.57,8,-3,66,1
0.26,-43.93,31.57,7,-4,64,1
0.26,5.57,31.57,8,-1,63,1
0.26,-67.99,31.57,7,0,65,1
0.26,-30.05,31.57,5,-2,64,1
0.26,-11.46,31.57,7,-3,64,1
0.26,59.1,31.57,6,-3,65,1
0.26,-22.03,31.57,9,-2,64,1
0.26,158.34,31.57,6,-3,63,1
0.26,1.8,31.57,7,-2,64,1
0,-0.03,32.61,-1,33,57,0
0.02,5.06,32.61,3,41,52,0
0.05,17.91,32.61,-5,35,51,0
0.05,79.34,32.61,-7,29,46,0
0.05,228.25,32.61,-11,39,55,0
0.05,-486.5,32.61,-11,42,47,0
0.05,-5.9,32.61,-12,35,53,0
0.05,156.15,32.61,-8,36,51,0
0.05,46.78,32.59,-12,41,50,0
0.05,4.05,32.59,-11,44,50,0
0.05,0.13,32.59,-5,33,51,0
0.05,0.72,32.59,-12,31,56,0
0.05,3.06,32.55,-19,35,48,0
0.05,12.51,32.55,-16,49,44,0
0.05,18.39,32.55,-9,41,50,0
0.05,-16.55,32.55,-16,24,55,0
0.05,16.39,32.5,-23,31,51,0
0.05,77.85,32.5,-13,41,46,0
0.05,145.77,32.5,-13,50,45,0
0.05,-90.55,32.5,-10,43,49,0
0.06,-230.57,32.49,-17,44,44,0
0.05,-2.17,32.49,-17,36,55,0
0.05,9.02,32.49,-20,42,44,0
0.05,-33.21,32.49,-17,40,60,0
0.05,38.33,32.47,-20,56,33,0
0.06,-41.31,32.47,-32,45,3,0
0.06,23.52,32.47,-42,42,-14,0
0.05,-67.15,32.47,-38,52,-11,0
0.06,78.59,32.47,-35,58,-14,0
0.05,-57.82,32.47,-18,61,6,0
0.06,-65.57,32.47,-8,60,8,0
0.05,-50.27,32.47,-2,59,26,0
0.06,-19.24,32.45,7,58,25,0
0.06,-56.35,32.45,4,54,27,0
0.05,-32.92,32.45,5,44,39,0
0.05,74.37,32.45,21,57,39,0
0.05,33.78,32.47,10,52,28,0
0.05,28.71,32.47,24,57,31,0
0.06,-48.47,32.47,10,49,33,0
0.05,3.54,32.47,6,51,30,0
0.05,54.4,32.43,30,52,50,0
0.05,2,32.43,10,52,25,0
0.05,55.88,32.43,30,54,28,0
0.05,-58.55,32.43,22,44,26,0
0.05,-35.03,32.41,-11,43,36,0
0.05,158.86,32.41,13,51,25,0
0.05,-102.93,32.41,20,54,24,0
0.05,10.22,32.41,32,60,20,0
0.05,-53.22,32.41,23,59,16,0
0.05,165.36,32.41,35,58,15,0
0.05,105.21,32.41,27,55,18,0
0.05,-109.62,32.41,28,56,15,0
0.05,5.98,32.39,42,47,18,0
0.05,-45.59,32.39,36,49,13,0
0.05,28.93,32.39,33,41,33,0
0.05,11.48,32.39,28,43,31,0
0.05,8.92,32.39,34,58,29,0
0.05,-1.07,32.39,23,42,31,0
0.05,-38.88,32.39,21,66,39,0
0.05,42.22,32.39,4,54,20,0
0.05,67.53,32.39,-48,53,-10,0
0.06,182.4,32.39,-8,61,20,0
0.05,34.73,32.39,2,54,0,0
0.05,-468.33,32.39,7,70,-17,0
0.05,34.17,32.31,19,50,-46,0
0.05,-734.29,32.31,16,47,-37,0
0.05,154.41,32.31,32,38,-46,0
0.05,312.33,32.31,28,49,-50,0
0.05,89.26,32.29,2,49,-3,0
0.05,-131.25,32.29,12,56,18,0
0.05,-47.93,32.29,6,49,37,0
0.05,8.74,32.29,4,46,31,0
0.05,4.07,32.25,4,49,36,0
0.06,-62.6,32.25,8,48,40,0
0.05,79.52,32.25,30,32,72,0
0.05,17.42,32.25,34,54,50,0
0.05,2.33,32.29,40,13,18,0
0.03,-148.24,32.29,72,45,-11,0
0.02,38.55,32.29,58,31,8,0
0.03,-47.13,32.29,53,34,-4,0
0.03,414.75,32.27,44,35,-25,0
0.03,-120.32,32.27,24,19,-49,0
0.05,54.91,32.27,45,46,-64,0
0.04,-265.37,32.27,37,32,-49,0
0.04,-117.41,32.29,66,32,3,0
0.04,346.63,32.29,63,33,4,0
0.03,103.98,32.29,57,26,1,0
0.02,-37.02,32.29,33,28,-5,0
0.03,25.4,32.25,52,35,7,0
0.03,386.82,32.25,50,30,-4,0
0.03,-91.74,32.25,51,33,-37,0
0.03,-552.94,32.25,45,33,-11,0
0.03,-821.6,32.29,47,34,23,0
0.04,646.21,32.29,55,39,-3,0
0.03,-71.5,32.29,53,40,1,0
0.02,-61.12,32.29,53,38,-4,0
0.03,-77.38,32.31,53,31,-8,0
0.03,-80.17,32.31,50,27,-26,0
0.04,188.31,32.31,49,29,-43,0
0.04,769.98,32.31,38,29,-37,0
0.03,680.16,32.33,30,40,-38,0
0.03,-814.92,32.33,54,48,3,0
0.03,-462.72,32.33,48,37,8,0
0.03,-258.32,32.33,49,29,4,0
0.02,256.58,32.33,57,46,-9,0
0.02,513.13,32.33,55,30,-11,0
0.02,224.42,32.33,57,34,-6,0
0.02,-16.36,32.33,46,38,-9,0
0.02,-314.92,32.31,47,47,-32,0
0.02,-249.32,32.31,33,39,-37,0
0.02,-387.08,32.31,30,38,-59,0
0.02,272.59,32.31,26,34,-62,0
0.03,382.75,32.33,51,33,11,0
0.03,-311.71,32.33,29,49,18,0
0.04,-385.79,32.33,41,53,14,0
0.04,-14.78,32.33,36,50,15,0
0.04,270.9,32.23,32,51,12,0
0.04,-119.19,32.23,35,49,16,0
0.04,-4.89,32.23,34,48,12,0
0.04,23.73,32.23,35,48,7,0
0.04,-100.25,32.21,39,49,9,0
0.04,-2.03,32.21,41,49,4,0
0.04,29.38,32.21,37,51,-2,0
0.04,-2.14,32.21,41,49,-1,0
0.04,-1.28,32.18,52,46,-12,0
0.04,-23.26,32.18,46,41,-15,0
0.04,14.18,32.18,41,44,-21,0
0.03,-14.07,32.18,50,40,-12,0
0.02,-11.99,32.16,44,62,9,0
0.02,-2.7,32.16,1,48,29,0
0.03,15.16,32.16,-40,28,39,0
0.04,9.62,32.16,-83,8,-13,0
0.05,-21.53,32.18,-49,-7,40,0
0.05,43.51,32.18,-43,-12,26,0
0.05,-13.86,32.18,-38,32,14,0
0.04,-61.51,32.18,2,55,-25,0
0.04,-38.56,32.21,18,57,-82,0
0.03,219.03,32.21,71,53,-5,0
0.02,-11.67,32.21,-29,45,9,0
0.03,0.48,32.21,-21,60,-5,0
0.03,-85.01,32.23,-46,48,17,0
0.04,-66.48,32.23,-31,58,-9,0
0.04,-13.79,32.23,66,63,12,0
0.04,-4.94,32.23,60,71,4,0
0.04,25.08,32.15,20,42,53,0
0.03,-93.07,32.15,2,44,48,0
0.04,128.03,32.15,-6,44,43,0
0.04,76.86,32.15,-13,45,36,0
0.04,22.4,32.13,1,51,43,0
0.04,-49.07,32.13,-1,47,29,0
0.05,-25.19,32.13,3,47,43,0
0.04,-91.3,32.13,13,39,60,0
0.05,-31.08,32.13,38,44,57,0
0.05,19.66,32.13,21,35,42,0
0.04,-49.94,32.13,12,25,48,0
0.04,-38.45,32.13,34,12,48,0
0.04,-87.57,32.13,102,49,7,0
0.03,-71.61,32.13,27,30,-9,0
0.02,-15.54,32.13,49,4,-4,0
0.03,30.33,32.13,54,18,-55,0
0.04,116.42,32.16,38,24,-65,0
0.04,83.2,32.16,51,24,-26,0
0.04,-21.96,32.16,70,34,-25,0
0.04,174.69,32.16,45,45,-21,0
0.04,3.4,32.16,53,29,-26,0
0.03,-16.37,32.16,38,27,-20,0
0.04,29.16,32.16,51,29,-13,0
0.04,69.69,32.16,50,27,-23,0
0.04,-206.59,32.16,48,25,-15,0
0.04,-400.78,32.16,65,22,-22,0
0.04,105.96,32.16,66,20,-20,0
0.04,68.91,32.16,58,12,-35,0
0.04,-21.47,32.23,50,23,-19,0
0.04,37.5,32.23,50,37,-16,0
0.04,-31.03,32.23,40,27,-36,0
0.04,-40,32.23,34,53,-27,0
0.04,0.69,32.25,25,28,-22,0
0.04,8.46,32.25,14,52,-36,0
0.04,-18.17,32.25,28,36,-18,0
0.04,17.31,32.25,41,42,-43,0
0.04,26.9,32.21,40,34,-44,0
0.04,-42.33,32.21,29,27,-57,0
